0.40597093;1.23529410
0.41012430;0.50980395
0.41012430;0.01960784
0.41431040;0.47058824
0.41843098;1.00000000
0.42241228;1.64705884
0.42241228;2.15686274
0.42654106;1.84313726
0.43068621;1.43137252
0.43479040;0.52941179
0.43479040;0.86274511
0.43881267;1.92156863
0.44295782;3.07843137
0.44702107;3.03921580
0.44702107;3.31372547
0.45113343;2.86274505
0.45528677;2.21568632
0.45528677;2.23529410
0.45926809;3.29411769
0.46355250;4.23529434
0.46752563;4.19607830
0.46752563;3.88235283
0.47159705;4.13725471
0.47559476;4.09803915
0.47974810;4.72549009
0.47974810;4.80392170
0.48393419;4.58823538
0.48806298;4.70588255
0.49218357;4.70588255
0.49218357;4.58823538
0.49630412;4.60784292
0.50039196;4.84313726
0.50039196;4.64705896
0.50434047;4.17647076
0.50838733;4.60784292
0.51246697;4.00000000
0.51246697;4.05882359
0.51660389;4.37254906
0.52074903;4.86274529
0.52491879;4.52941179
0.52491879;4.70588255
0.52886730;4.23529434
0.53303707;3.82352948
0.53716582;3.43137264
0.53716582;3.94117641
0.54130280;4.15686274
0.54543155;4.86274529
0.54543155;3.86274505
0.54935551;3.35294127
0.55357438;2.72549009
0.55768681;2.96078420
0.55768681;4.31372547
0.56180733;3.98039222
0.56581324;3.33333325
0.56985188;2.27450991
0.56985188;1.80392158
0.57408714;1.25490201
0.57818317;1.35294116
0.58227098;1.37254906
0.58227098;1.64705884
0.58626866;1.17647064
0.59041381;1.21568632
0.59041381;0.86274511
0.59453440;0.49019608
0.59846658;1.33333337
0.60261172;2.23529410
0.60261172;2.39215684
0.60678142;2.60784316
0.61093479;2.31372547
0.61506355;2.05882359
0.61506355;1.86274505
0.61900389;3.00000000
0.62316543;4.37254906
0.62723684;4.80392170
0.62723684;3.98039222
0.63134104;2.80392146
0.63539612;2.00000000
0.63953304;3.68627453
0.64361268;4.41176462
0.64771688;4.52941179
0.64771688;3.86274505
0.65173912;2.78431368
0.65590888;2.03921580
0.66003764;2.01960778
0.66003764;3.98039222
0.66418278;4.84313726
0.66830337;4.35294104
0.67229289;3.41176462
0.67229289;1.86274505
0.67642981;1.09803927
0.68055856;1.74509799
0.68467915;3.47058821
0.68870962;2.70588231
0.69291210;2.21568632
0.69291210;1.70588231
0.69695896;1.52941179
0.70108777;2.49019599
0.70509362;2.88235283
0.70509362;3.00000000
0.70922238;2.15686274
0.71320373;1.23529410
0.71733248;0.92156863
0.71733248;1.21568632
0.72149402;2.88235283
0.72552449;3.72549009
0.72967780;2.68627453
0.73378199;1.62745094
0.73793536;0.74509805
0.73793536;1.60784316
0.74192488;2.25490189
0.74602908;3.00000000
0.75030529;2.13725495
0.75030529;0.54901963
0.75423741;0.09803922
0.75834984;0.60784316
0.76242125;1.43137252
0.76242125;2.35294127
0.76647627;3.19607854
0.77066243;2.68627453
0.77471745;0.80392158
0.77873969;1.66666663
0.78290945;3.41176462
0.78290945;4.03921556
0.78703821;3.45098042
0.79113418;2.11764717
0.79527938;0.78431374
0.79527938;0.62745100
0.79927707;2.50980401
0.80343860;4.96078444
0.80753458;4.98039198
0.80753458;4.74509811
0.81168795;4.27450991
0.81560373;3.29411769
0.81971610;4.49019623
0.82386124;4.70588255
0.82796544;3.98039222
0.82796544;2.25490189
0.83195496;0.23529412
0.83621478;0.23529412
0.84021246;1.39215684
0.84021246;3.43137264
0.84448051;4.66666651
0.84856015;4.47058821
0.85250050;3.45098042
0.85250050;1.45098042
0.85666203;1.21568632
0.86079895;2.54901958
0.86493593;4.70588255
0.86899096;4.47058821
0.87302965;3.29411769
0.87302965;2.33333325
0.87713385;2.54901958
0.88128716;4.03921556
0.88536680;4.98039198
0.88536680;4.76470566
0.88941365;3.92156863
0.89347684;2.84313726
0.89758927;2.88235283
0.89758927;3.76470590
0.90170163;4.84313726
0.90579766;4.90196085
0.90990180;4.17647076
0.91403878;3.54901958
0.91815937;3.96078420
0.91815937;4.86274529
0.92231268;4.84313726
0.92630219;4.98039198
0.93041462;4.72549009
0.93041462;3.92156863
0.93453515;3.39215684
0.93851650;3.84313726
0.94257969;4.96078444
0.94257969;4.90196085
0.94672489;4.92156839
0.95091099;4.50980377
0.95502335;3.68627453
0.95502335;3.09803915
0.95893914;4.31372547
0.96319896;4.80392170
0.96319896;4.98039198
0.96723765;4.45098019
0.97152203;3.54901958
0.97555250;2.82352948
0.97555250;3.03921580
0.97952563;4.35294104
0.98365438;4.98039198
0.98778319;4.78431368
0.98778319;4.00000000
0.99180543;2.58823538
0.99590963;1.82352936
1.00003016;2.01960778
1.00003016;2.17647052
1.00412619;2.74509811
1.00819767;1.72549021
1.00819767;0.00000000
1.01221168;0.05882353
1.01643062;0.00000000
1.02049387;0.11764706
1.02049387;0.29411766
1.02467179;0.47058824
1.02861214;0.92156863
1.03278184;1.31372547
1.03278184;1.60784316
1.03693521;2.17647052
1.04105580;3.05882359
1.04517627;4.07843161
1.04517627;4.58823538
1.04930508;4.39215708
1.05327821;3.60784316
1.05327821;3.23529410
1.05740702;3.43137264
1.06156027;4.29411745
1.06571364;4.86274529
1.06571364;4.78431368
1.06968677;4.39215708
1.07383192;3.98039222
1.07803440;3.41176462
1.07803440;2.96078420
1.08190107;3.86274505
1.08601344;4.13725471
1.09028149;4.11764717
1.09028149;3.84313726
1.09426284;3.37254906
1.09833419;3.49019599
1.09833419;4.21568632
1.10238922;4.68627453
1.10649347;4.62745094
1.11061406;4.60784292
1.11061406;4.00000000
1.11480010;3.96078420
1.11878967;4.37254906
1.12291837;4.98039198
1.12291837;4.90196085
1.12699807;4.98039198
1.13108587;4.64705896
1.13526380;4.47058821
1.13526380;4.43137264
1.13929427;4.98039198
1.14334929;4.94117641
1.14754355;4.33333349
1.15157402;3.78431368
1.15578473;3.56862736
1.15578473;3.92156863
1.15979874;4.43137264
1.16391933;4.70588255
1.16804814;4.64705896
1.16804814;4.58823538
1.17202950;4.58823538
1.17629743;4.31372547
1.18027878;4.64705896
1.18027878;4.92156839
1.18442392;4.98039198
1.18854451;4.98039198
1.19256675;4.84313726
1.19667101;4.64705896
1.20082426;4.62745094
1.20082426;4.70588255
1.20492029;4.56862736
1.20888519;4.07843161
1.21300578;3.09803915
1.21300578;2.03921580
1.21714282;1.33333337
1.22120607;0.96078432
1.22532654;0.49019608
1.22532654;0.05882353
1.22939801;0.00000000
1.23352683;0.00000000
1.23768008;0.00000000
1.24180067;0.01960784
1.24579835;0.07843138
1.24579835;0.00000000
1.24991894;0.00000000
1.25400674;0.00000000
1.25815189;0.00000000
1.25815189;0.00000000
1.26222336;0.00000000
1.26620471;0.00000000
1.27032530;0.00000000
1.27032530;0.00000000
1.27445400;0.00000000
1.27860737;0.00000000
1.28261328;0.00000000
1.28679931;0.00000000
1.29089534;0.00000000
1.29089534;0.01960784
1.29504871;0.00000000
1.29902184;0.00000000
1.30329800;0.01960784
1.30329800;0.00000000
1.30727935;0.00000000
1.31139994;0.01960784
1.31557786;0.09803922
1.31557786;0.00000000
1.31959188;0.05882353
1.32367969;0.21568628
1.32780850;0.11764706
1.33192086;0.05882353
1.33588588;0.07843138
1.33588588;0.35294119
1.34002280;0.60784316
1.34413517;0.90196079
1.34828854;0.54901963
1.34828854;0.43137255
1.35226977;0.15686275
1.35636580;0.11764706
1.36052740;0.50980395
1.36052740;1.29411769
1.36467254;1.31372547
1.36880124;1.05882359
1.37278259;0.47058824
1.37684584;0.60784316
1.38094187;1.23529410
1.38094187;1.47058821
1.38509512;1.56862748
1.38919938;1.66666663
1.39320529;1.50980389
1.39320529;1.15686274
1.39730120;1.19607842
1.40140545;1.33333337
1.40559971;1.41176474
1.40559971;1.07843137
1.40960562;1.19607842
1.41373444;0.78431374
1.41785502;0.52941179
1.41785502;0.88235295
1.42186904;1.35294116
1.42597330;1.45098042
1.42597330;1.03921568
1.43010199;0.52941179
1.43423080;0.15686275
1.43835950;0.19607843
1.43835950;0.68627453
1.44232452;1.25490201
1.44643688;1.56862748
1.45055747;1.33333337
1.45055747;1.70588231
1.45472717;1.92156863
1.45877397;2.17647052
1.46281266;2.78431368
1.46281266;3.23529410
1.46695781;3.29411769
1.47116029;3.56862736
1.47116029;3.56862736
1.47517443;3.52941179
1.47917211;3.58823538
1.48330903;4.23529434
1.48330903;4.60784292
1.48748696;4.47058821
1.49178779;4.25490189
1.49568713;3.90196085
1.49568713;3.84313726
1.49969304;4.15686274
1.50383008;4.47058821
1.50796700;4.35294104
1.50796700;4.52941179
1.51196468;4.33333349
1.51622450;3.96078420
1.51622450;4.01960802
1.52023041;4.43137264
1.52434278;4.66666651
1.52847970;4.68627453
1.52847970;4.92156839
1.53251839;4.74509811
1.53659797;4.64705896
1.54071856;4.64705896
1.54071856;4.58823538
1.54485559;4.00000000
1.54885328;4.13725471
1.55299020;4.21568632
1.55299020;4.54901981
1.55710256;4.39215708
1.56123960;4.54901981
1.56123960;4.96078444
1.56535196;4.98039198
1.56933320;4.82352924
1.57347023;4.80392170
1.57347023;4.52941179
1.57763171;4.70588255
1.58171141;4.98039198
1.58585656;4.94117641
1.58585656;4.98039198
1.58982968;4.96078444
1.59395838;4.80392170
1.59807074;4.47058821
1.59807074;4.68627453
1.60233057;4.98039198
1.60620546;4.76470566
1.61032605;4.31372547
1.61444664;4.03921556
1.61865723;3.88235283
1.61865723;4.58823538
1.62258947;4.98039198
1.62674284;4.92156839
1.63092065;4.90196085
1.63092065;4.41176462
1.63499212;3.92156863
1.63911271;3.96078420
1.64319229;4.43137264
1.64319229;4.64705896
1.64723921;4.76470566
1.65140891;4.27450991
1.65547216;3.21568632
1.65948617;3.50980401
1.66359854;3.64705873
1.66359854;3.27450991
1.66771102;3.11764717
1.67183971;3.15686274
1.67582929;2.66666675
1.67582929;2.62745094
1.67993343;2.86274505
1.68405402;3.64705873
1.68819916;3.82352948
1.68819916;4.00000000
1.69216406;4.03921556
1.69630110;3.60784316
1.70041347;3.54901958
1.70455861;3.47058821
1.70867097;3.21568632
1.70867097;2.66666675
1.71268511;1.88235295
1.71680558;1.50980389
1.72094262;2.13725495
1.72094262;2.74509811
1.72506320;2.82352948
1.72923291;2.64705873
1.73323059;2.37254906
1.73323059;1.54901958
1.73735118;1.37254906
1.74147177;1.29411769
1.74546945;2.45098042
1.74959826;3.00000000
1.75366139;2.78431368
1.75366139;2.43137264
1.75782299;2.37254906
1.76191902;2.60784316
1.76595759;3.27450991
1.76595759;3.86274505
1.77017653;4.21568632
1.77418244;4.64705896
1.77837670;4.90196085
1.77837670;4.98039198
1.78239083;4.94117641
1.78654408;4.80392170
1.79064834;4.64705896
1.79479349;4.78431368
1.79897141;4.98039198
1.79897141;4.98039198
1.80291998;4.96078444
1.80708146;4.98039198
1.81120205;4.98039198
1.81120205;4.98039198
1.81529808;4.98039198
1.81925476;5.00000000
1.82333446;5.00000000
1.82333446;4.98039198
1.82751226;4.98039198
1.83163285;3.98039222
1.83572066;2.25490189
1.83976758;1.94117641
1.84387994;1.39215684
1.84387994;0.31372550
1.84794319;0.00000000
1.85225213;1.09803927
1.85622525;1.31372547
1.85622525;0.66666669
1.86027217;1.23529410
1.86440086;1.98039210
1.86853790;2.23529410
1.86853790;2.09803915
1.87251103;1.39215684
1.87661517;0.76470590
1.88076031;0.70588237
1.88483989;0.90196079
1.88896871;0.64705884
1.88896871;0.15686275
1.89299917;0.09803922
1.89706242;0.27450982
1.90127313;0.50980395
1.90127313;0.60784316
1.90536904;0.19607843
1.90939140;0.01960784
1.91350377;0.09803922
1.91350377;0.00000000
1.91764891;0.41176471
1.92171216;1.37254906
1.92591465;3.39215684
1.92591465;4.98039198
1.92991233;4.98039198
1.93402469;4.80392170
1.93402469;3.70588231
1.93811250;3.33333325
1.94241333;3.43137264
1.94636190;3.49019599
1.94636190;4.23529434
1.95053160;4.01960802
1.95457029;2.58823538
1.95865810;1.05882359
1.95865810;0.52941179
1.96261477;0.74509805
1.96675169;0.50980395
1.97088051;0.60784316
1.97088051;0.62745100
1.97492731;0.62745100
1.97906435;0.88235295
1.97906435;1.60784316
1.98322582;2.33333325
1.98728085;2.98039222
1.99138510;3.66666675
1.99138510;3.47058821
1.99541557;2.74509811
1.99951971;2.41176462
2.00362396;2.29411769
2.00362396;2.03921580
2.00767088;1.50980389
2.01181602;0.78431374
2.01594472;0.21568628
2.01594472;0.09803922
2.01993418;0.29411766
2.02418590;0.80392158
2.02418590;0.47058824
2.02821636;0.27450982
2.03227949;0.35294119
2.03635907;0.01960784
2.03635907;0.25490198
2.04053712;0.72549021
2.04466581;0.88235295
2.04877830;0.62745100
2.04877830;0.17647059
2.05270219;0.00000000
2.05690479;0.03921569
2.06101704;0.03921569
2.06101704;0.07843138
2.06517053;0.00000000
2.06929111;0.01960784
2.06929111;0.00000000
2.07328057;0.05882353
2.07737660;0.01960784
2.08152986;0.05882353
2.08152986;0.03921569
2.08568311;0.03921569
2.08963990;0.00000000
2.09375238;0.00000000
2.09375238;0.00000000
2.09780741;0.00000000
2.10198522;0.07843138
2.10599113;0.15686275
2.10599113;0.23529412
2.11028385;0.07843138
2.11424041;0.33333334
2.11839390;0.01960784
2.12239981;0.45098040
2.12652040;0.49019608
2.12652040;0.62745100
2.13058352;0.39215687
2.13469601;0.52941179
2.13884115;0.41176471
2.13884115;1.11764705
2.14283061;1.62745094
2.14693475;1.47058821
2.15106344;1.50980389
2.15106344;2.21568632
2.15524149;2.76470590
2.15919828;3.29411769
2.16337609;4.27450991
2.16748857;4.33333349
2.17164183;4.64705896
2.17164183;4.39215708
2.17558217;4.23529434
2.17971921;4.80392170
2.18390536;4.94117641
2.18390536;4.72549009
2.18802595;4.98039198
2.19206452;4.98039198
2.19616866;4.66666651
2.19616866;4.41176462
2.20020747;4.72549009
2.20432782;4.88235283
2.20844841;4.45098019
2.21242166;3.84313726
2.21659136;2.58823538
2.21659136;2.50980401
2.22078562;2.49019599
2.22490621;2.54901958
2.22902679;2.39215684
2.22902679;2.00000000
2.23300815;1.62745094
2.23713684;1.29411769
2.24126577;1.52941179
2.24126577;1.80392158
2.24541092;2.68627453
2.24940848;3.31372547
2.25348806;2.09803915
2.25763321;2.49019599
2.26172113;2.43137264
2.26172113;2.72549009
2.26569414;2.50980401
2.26979852;2.19607854
2.27397633;1.58823526
2.27397633;2.00000000
2.27809691;2.11764717
2.28229117;2.54901958
2.28624797;2.90196085
2.28624797;2.78431368
2.29039311;2.11764717
2.29451370;0.78431374
2.29864240;0.56862748
2.30259919;2.00000000
2.30676079;2.94117641
2.30676079;3.19607854
2.31088948;3.00000000
2.31498551;1.78431368
2.31904864;1.68627453
2.31904864;2.39215684
2.32320213;3.43137264
2.32718325;3.29411769
2.33138585;3.41176462
2.33138585;3.72549009
2.33543277;3.96078420
2.33947134;3.74509811
2.34363294;2.74509811
2.34776163;2.82352948
2.35191512;3.23529410
2.35191512;3.52941179
2.35588813;3.72549009
2.36000872;4.07843161
2.36428499;4.78431368
2.36428499;4.74509811
2.36828256;4.80392170
2.37240314;4.88235283
2.37639260;4.39215708
2.37639260;4.41176462
2.38044763;4.50980377
2.38456011;3.82352948
2.38876271;2.94117641
2.39270306;1.94117641
2.39683175;0.86274511
2.39683175;0.47058824
2.40092778;0.03921569
2.40504837;0.01960784
2.40928364;0.03921569
2.40928364;0.01960784
2.41324854;0.11764706
2.41738558;0.03921569
2.42149782;0.00000000
2.42149782;0.07843138
2.42565942;0.01960784
2.42963243;0.00000000
2.43375301;0.00000000
2.43375301;0.00000000
2.43789005;0.00000000
2.44198608;0.27450982
2.44198608;0.50980395
2.44592643;0.60784316
2.45021081;0.00000000
2.45419216;0.00000000
2.45419216;0.25490198
2.45831275;0.00000000
2.46230221;0.00000000
2.46646380;0.00000000
2.46646380;0.07843138
2.47066617;0.00000000
2.47476220;0.00000000
2.47889090;0.00000000
2.47889090;0.00000000
2.48289680;0.00000000
2.48699284;0.00000000
2.48699284;0.00000000
2.49113798;0.00000000
2.49525857;0.03921569
2.49941206;0.00000000
2.49941206;0.00000000
2.50334406;0.05882353
2.50744009;0.00000000
2.51156878;0.00000000
2.51156878;0.00000000
2.51576328;0.00000000
2.51967907;0.05882353
2.52388144;0.76470590
2.52388144;0.78431374
2.52796936;1.03921568
2.53215528;0.70588237
2.53215528;0.00000000
2.53625131;0.35294119
2.54028177;0.64705884
2.54441071;1.43137252
2.54441071;1.05882359
2.54853129;1.17647064
2.55250430;1.74509799
2.55664134;2.41176462
2.55664134;1.39215684
2.56076193;1.23529410
2.56493163;2.39215684
2.56915855;3.62745094
2.56915855;4.15686274
2.57300067;3.92156863
2.57731795;3.49019599
2.57731795;4.33333349
2.58124995;4.98039198
2.58536243;4.98039198
2.58949113;4.98039198
2.58949113;4.66666651
2.59351349;4.49019623
2.59755206;3.80392146
2.60168910;4.27450991
2.60168910;4.84313726
2.60576868;4.92156839
2.60982370;4.49019623
2.61400986;4.98039198
2.61400986;4.52941179
2.61813855;4.50980377
2.62228370;4.76470566
2.62628150;3.98039222
2.63033652;3.43137264
2.63443255;2.78431368
2.63443255;1.72549021
2.63866782;1.70588231
2.64257526;1.84313726
2.64667964;1.45098042
2.64667964;1.35294116
2.65081644;1.43137252
2.65494537;1.80392158
2.65915608;2.37254906
2.65915608;3.52941179
2.66326022;4.98039198
2.66727424;4.98039198
2.67141128;4.98039198
2.67552352;4.94117641
2.67966056;4.80392170
2.67966056;4.98039198
2.68362546;4.98039198
2.68775415;4.98039198
2.69194031;4.98039198
2.69194031;4.96078444
2.69593811;4.96078444
2.70005870;5.00000000
2.70428562;4.98039198
2.70428562;4.96078444
2.70831609;4.98039198
2.71242857;4.98039198
2.71638536;5.00000000
2.72071886;4.98039198
2.72456098;4.96078444
2.72456098;4.98039198
2.72867322;4.98039198
2.73271203;4.92156839
2.73688173;4.58823538
2.73688173;4.98039198
2.74102688;4.98039198
2.74515557;4.92156839
2.74927616;5.00000000
2.74927616;4.92156839
2.75320005;4.88235283
2.75730443;4.98039198
2.76146579;4.98039198
2.76556182;4.94117641
2.76955962;4.98039198
2.76955962;4.64705896
2.77368021;4.52941179
2.77786613;4.41176462
2.78199506;4.45098019
2.78199506;4.66666651
2.78594351;4.62745094
2.79028535;4.13725471
2.79426670;3.29411769
2.79426670;2.29411769
2.79838729;1.72549021
2.80246687;1.33333337
2.80651355;1.39215684
2.81064248;1.29411769
2.81482863;0.47058824
2.81482863;0.21568628
2.81906390;0.49019608
2.82288957;0.90196079
2.82699370;0.82352942
2.82699370;0.68627453
2.83114696;0.33333334
2.83524299;0.07843138
2.83937168;0.25490198
2.83937168;0.80392158
2.84350872;1.19607842
2.84745717;1.49019611
2.85156155;1.74509799
2.85573125;1.92156863
2.85976982;3.03921580
2.85976982;4.76470566
2.86389852;4.92156839
2.86802745;4.98039198
2.87215614;4.98039198
2.87215614;4.96078444
2.87627673;4.96078444
2.88022518;4.84313726
2.88437867;4.43137264
2.88437867;4.27450991
2.88847470;3.45098042
2.89257073;2.74509811
2.89654374;1.27450979
2.90068078;1.74509799
2.90485859;2.33333325
2.90485859;1.90196073
2.90902829;1.39215684
2.91301775;0.47058824
2.91727781;0.09803922
2.91727781;0.19607843
2.92125893;0.45098040
2.92540407;0.21568628
2.92952466;0.05882353
2.92952466;0.09803922
2.93349791;0.03921569
2.93763471;0.07843138
2.94182920;0.13725491
2.94182920;0.07843138
2.94591689;0.05882353
2.94986558;0.37254903
2.94986558;0.09803922
2.95401883;0.13725491
2.95812297;0.41176471
2.96230912;1.03921568
2.96230912;1.35294116
2.96624136;0.96078432
2.97043562;0.80392158
2.97450709;0.17647059
2.97450709;0.25490198
2.97862768;0.60784316
2.98258424;1.15686274
2.98671317;1.45098042
2.98671317;1.29411769
2.99089098;0.92156863
2.99500346;0.25490198
2.99500346;0.25490198
2.99915671;0.52941179
3.00322819;1.00000000
3.00719309;1.13725495
3.00719309;0.90196079
3.01133823;0.29411766
3.01549983;0.03921569
3.01956296;0.17647059
3.01956296;0.45098040
3.02355242;0.60784316
3.02768946;0.35294119
3.03190017;0.07843138
3.03190017;0.01960784
3.03596330;0.01960784
3.04000211;0.11764706
3.04000211;0.27450982
3.04414725;0.52941179
3.04827595;0.29411766
3.05239654;0.19607843
3.05239654;0.11764706
3.05636978;0.15686275
3.06052303;0.47058824
3.06466007;0.88235295
3.06466007;1.11764705
3.06882143;1.33333337
3.07281113;0.76470590
3.07689071;0.31372550
3.07689071;0.45098040
3.08101940;0.72549021
3.08518100;1.15686274
3.08930159;1.00000000
3.09338927;0.84313726
3.09729695;0.78431374
3.09729695;1.21568632
3.10150766;1.88235295
3.10563636;2.27450991
3.10977340;2.11764717
3.10977340;1.84313726
3.11374640;1.35294116
3.11788344;0.96078432
3.12202859;1.43137252
3.12202859;2.03921580
3.12602615;2.13725495
3.13022065;2.15686274
3.13418555;1.74509799
3.13838792;1.96078432
3.14245129;2.98039222
3.14245129;3.66666675
3.14649796;3.84313726
3.15055299;4.00000000
3.15472293;4.07843161
3.15472293;4.39215708
3.15885973;4.94117641
3.16288209;5.00000000
3.16701078;4.98039198
3.16701078;4.92156839
3.17113137;4.56862736
3.17527652;3.70588231
3.17938900;3.29411769
3.18336201;3.33333325
3.18751550;2.84313726
3.18751550;3.05882359
3.19168520;2.68627453
3.19581389;2.21568632
3.19992638;2.27450991
3.19992638;2.78431368
3.20393205;3.58823538
3.20799541;4.07843161
3.21210766;4.15686274
3.21210766;3.86274505
3.21625304;3.21568632
3.22023416;3.11764717
3.22430563;3.64705873
3.22850823;3.35294127
3.23257947;2.98039222
3.23257947;2.41176462
3.23665094;2.03921580
3.24076343;2.47058821
3.24487567;2.84313726
3.24487567;2.62745094
3.24902081;2.29411769
3.25298595;1.50980389
3.25719643;0.92156863
3.25719643;0.94117647
3.26119423;1.43137252
3.26529026;2.00000000
3.26948452;1.98039210
3.27351499;1.92156863
3.27754545;1.39215684
3.27754545;1.45098042
3.28169870;2.15686274
3.28584385;2.19607854
3.28989077;2.45098042
3.28989077;2.09803915
3.29401135;2.00000000
3.29812384;1.84313726
3.30236721;2.09803915
3.30236721;2.25490189
3.30632401;2.21568632
3.31042004;2.13725495
3.31457329;1.56862748
3.31866932;1.92156863
3.32274079;2.43137264
3.32274079;3.15686274
3.32673025;3.17647052
3.33088350;3.15686274
3.33497953;2.35294127
3.33497953;1.60784316
3.33910847;1.70588231
3.34324527;2.41176462
3.34722662;3.21568632
3.34722662;3.21568632
3.35135531;2.88235283
3.35563970;2.43137264
3.35967851;2.13725495
3.36357784;2.09803915
3.36774755;1.66666663
3.36774755;1.11764705
3.37187624;0.49019608
3.37602139;0.21568628
3.37995362;0.11764706
3.37995362;0.45098040
3.38414788;0.45098040
3.38821125;0.56862748
3.39229894;0.43137255
3.39229894;0.90196079
3.39628839;1.50980389
3.40042543;2.39215684
3.40457892;4.05882359
3.40457892;4.96078444
3.40870762;4.98039198
3.41286922;4.84313726
3.41286922;4.37254906
3.41689134;3.74509811
3.42100382;3.78431368
3.42514062;4.47058821
3.42514062;4.56862736
3.42926955;4.78431368
3.43325090;4.64705896
3.43736315;4.64705896
3.43736315;4.64705896
3.44145107;4.98039198
3.44552255;4.96078444
3.44969225;4.74509811
3.44969225;4.29411745
3.45368981;3.78431368
3.45779395;3.39215684
3.45779395;3.62745094
3.46192288;4.13725471
3.46607614;4.54901981
3.47027874;4.76470566
3.47027874;4.50980377
3.47422719;4.17647076
3.47837234;3.92156863
3.48250103;4.39215708
3.48250103;4.92156839
3.48649073;4.98039198
3.49063587;4.82352924
3.49475646;4.66666651
3.49475646;4.19607830
3.49889326;4.15686274
3.50295663;4.54901981
3.50295663;4.94117641
3.50692964;4.60784292
3.51107478;4.43137264
3.51516271;3.90196085
3.51516271;3.50980401
3.51934862;3.41176462
3.52330542;3.70588231
3.52740955;4.15686274
3.52740955;3.92156863
3.53157115;3.07843137
3.53571630;2.52941179
3.53989434;2.01960778
3.53989434;2.31372547
3.54387569;2.50980401
3.54802084;2.35294127
3.54802084;1.68627453
3.55209208;1.11764705
3.55627823;0.52941179
3.56025147;0.27450982
3.56025147;0.64705884
3.56439662;0.92156863
3.56845975;1.05882359
3.57262135;0.72549021
3.57262135;0.27450982
3.57660270;0.00000000
3.58070683;0.54901963
3.58479452;0.92156863
3.58479452;0.94117647
3.58891511;0.56862748
3.59307671;0.37254903
3.59727097;0.50980395
3.60125232;0.84313726
3.60538936;1.15686274
3.60538936;0.82352942
3.60939527;1.01960790
3.61349130;0.35294119
3.61761189;0.11764706
3.61761189;0.33333334
3.62174869;0.74509805
3.62588573;1.17647064
3.62994075;0.84313726
3.62994075;0.60784316
3.63391376;0.23529412
3.63807535;0.17647059
3.64217949;1.33333337
3.64616084;1.60784316
3.65038800;1.86274505
3.65038800;1.31372547
3.65445113;0.76470590
3.65862083;0.47058824
3.66277432;0.78431374
3.66277432;1.17647064
3.66673112;1.17647064
3.67090082;1.25490201
3.67499685;0.96078432
3.67499685;0.64705884
3.67912555;0.94117647
3.68324614;1.60784316
3.68726826;2.31372547
3.69142985;2.07843137
3.69553399;1.74509799
3.69553399;1.64705884
3.69948268;2.41176462
3.70360327;3.05882359
3.70775652;3.07843137
3.70775652;2.82352948
3.71192622;2.03921580
3.71598959;1.13725495
3.71997905;0.86274511
3.71997905;1.25490201
3.72424698;1.70588231
3.72825289;2.01960778
3.73232436;1.76470590
3.73631382;1.92156863
3.74049997;2.62745094
3.74049997;3.60784316
3.74462056;4.00000000
3.74876571;3.92156863
3.75283718;3.62745094
3.75283718;2.88235283
3.75681019;2.23529410
3.76093912;2.31372547
3.76504326;2.74509811
3.76504326;2.76470590
3.76917195;2.68627453
3.77316976;2.11764717
3.77729034;1.88235295
3.78144360;2.21568632
3.78571153;2.58823538
3.78571153;2.43137264
3.78962731;1.78431368
3.79373980;1.66666663
3.79786038;1.70588231
3.79786038;2.27450991
3.80202198;2.54901958
3.80613422;3.13725495
3.81027126;3.47058821
3.81027126;2.96078420
3.81425261;2.54901958
3.81843042;2.41176462
3.82255101;3.21568632
3.82650781;3.58823538
3.83063650;3.86274505
3.83063650;3.72549009
3.83472443;3.60784316
3.83885312;3.17647052
3.84312940;3.94117641
3.84312940;4.56862736
3.84691405;4.82352924
3.85104275;4.84313726
3.85517168;4.35294104
3.85517168;4.09803915
3.85939050;4.23529434
3.86337996;4.68627453
3.86748409;4.62745094
3.87169480;4.23529434
3.87574172;3.70588231
3.87574172;3.33333325
3.87971473;3.49019599
3.88380265;4.19607830
3.88795590;4.35294104
3.88795590;4.78431368
3.89205194;4.43137264
3.89615607;3.88235283
3.90026045;3.54901958
3.90026045;3.90196085
3.90434813;3.98039222
3.90851784;3.45098042
3.91263843;2.74509811
3.91263843;1.74509799
3.91661167;0.76470590
3.92074037;0.90196079
3.92074037;1.11764705
3.92479539;1.21568632
3.92901421;1.07843137
3.93314314;0.78431374
3.93314314;0.45098040
3.93726373;0.17647059
3.94126940;0.84313726
3.94539833;1.47058821
3.94539833;1.92156863
3.94954348;1.82352936
3.95348382;1.31372547
3.95762897;0.64705884
3.95762897;0.50980395
3.96179867;0.78431374
3.96586180;1.21568632
3.96586180;1.39215684
3.96991682;1.21568632
3.97390652;0.86274511
3.97824812;0.72549021
3.97824812;1.27450979
3.98219681;1.96078432
3.98631740;2.49019599
3.99038053;2.70588231
3.99038053;2.56862736
3.99450111;2.52941179
3.99862170;2.62745094
4.00270128;3.19607854
4.00270128;4.03921556
4.00668240;4.05882359
4.01087713;4.37254906
4.01087713;4.17647076
4.01491547;4.01960802
4.01908541;4.03921556
4.02317333;4.41176462
4.02317333;4.74509811
4.02723646;4.68627453
4.03132439;4.19607830
4.03549385;3.72549009
4.03549385;3.41176462
4.03963900;3.58823538
4.04362059;4.01960802
4.04773283;4.07843161
4.04773283;3.90196085
4.05192709;3.74509811
4.05607224;3.25490189
4.05607224;2.98039222
4.06004524;3.47058821
4.06432152;4.35294104
4.06830263;4.11764717
4.06830263;3.94117641
4.07242346;3.66666675
4.07641315;3.35294127
4.08052540;3.29411769
4.08052540;3.66666675
4.08467054;4.11764717
4.08872557;4.00000000
4.09300184;3.72549009
4.09300184;3.21568632
4.09690952;2.94117641
4.10103798;3.07843137
4.10526514;3.29411769
4.10928726;3.03921580
4.11332607;2.35294127
4.11332607;1.49019611
4.11738920;0.74509805
4.12149334;0.84313726
4.12561417;1.17647064
4.12561417;1.05882359
4.12958717;1.07843137
4.13374043;0.84313726
4.13783646;0.96078432
4.13783646;1.66666663
4.14193249;2.62745094
4.14602852;3.41176462
4.15017366;3.41176462
4.15421247;3.00000000
4.15836573;2.56862736
4.15836573;2.94117641
4.16251087;3.19607854
4.16649199;3.52941179
4.17061281;3.66666675
4.17061281;3.41176462
4.17472506;2.82352948
4.17886209;2.31372547
4.18299103;2.64705873
4.18299103;2.84313726
4.18698025;3.01960778
4.19120741;3.07843137
4.19515610;2.17647052
4.19930935;2.01960778
4.20341349;2.64705873
4.20341349;2.92156863
4.20746851;2.80392146
4.21153975;2.76470590
4.21573448;2.35294127
4.21573448;2.01960778
4.21969938;2.17647052
4.22383595;2.86274505
4.22798967;3.21568632
4.22798967;3.17647052
4.23213482;2.96078420
4.23617315;2.43137264
4.24024487;2.58823538
4.24438190;3.01960778
4.24851036;2.98039222
4.24851036;3.09803915
4.25258207;2.62745094
4.25655508;1.70588231
4.26066732;1.84313726
4.26066732;2.41176462
4.26477957;2.76470590
4.26902342;2.94117641
4.27303743;2.86274505
4.27303743;2.82352948
4.27723169;2.68627453
4.28118849;3.03921580
4.28536606;4.07843161
4.28951120;4.27450991
4.29350901;4.00000000
4.29350901;3.56862736
4.29762983;3.37254906
4.30174208;3.64705873
4.30588722;4.05882359
4.30588722;4.21568632
4.30986834;3.90196085
4.31398106;3.19607854
4.31820822;2.31372547
4.31820822;2.13725495
4.32215643;2.21568632
4.32635069;2.64705873
4.33029938;1.88235295
4.33440351;1.80392158
4.33854055;1.54901958
4.33854055;1.78431368
4.34268570;2.31372547
4.34674883;2.27450991
4.35086155;1.94117641
4.35086155;1.25490201
4.35501480;0.84313726
4.35911083;1.01960790
4.36325598;1.54901958
4.36325598;1.90196073
4.36722898;1.84313726
4.37135792;1.86274505
4.37548637;1.62745094
4.37548637;1.35294116
4.37957430;1.27450979
4.38353920;1.64705884
4.38353920;1.92156863
4.38768435;1.74509799
4.39178848;1.52941179
4.39590073;1.05882359
4.39590073;0.88235295
4.39991522;1.29411769
4.40422392;1.72549021
4.40823793;2.37254906
4.40823793;2.37254906
4.41234207;2.41176462
4.41650391;2.54901958
4.42049313;2.72549009
4.42049313;3.49019599
4.42461395;4.17647076
4.42873430;4.15686274
4.42873430;3.62745094
4.43287945;3.33333325
4.43686104;3.00000000
4.44103909;2.96078420
4.44103909;3.41176462
4.44525766;3.90196085
4.44925547;3.92156863
4.45335150;3.84313726
4.45335150;3.19607854
4.45737362;2.84313726
4.46146965;3.31372547
4.46559858;3.49019599
4.46559858;3.98039222
4.46986628;4.00000000
4.47365141;3.90196085
4.47365141;3.23529410
4.47778797;3.15686274
4.48196602;3.74509811
4.48607826;3.90196085
4.48607826;3.88235283
4.49026442;3.45098042
4.49426222;3.11764717
4.49838305;2.66666675
4.49838305;2.84313726
4.50249529;3.37254906
4.50643539;3.49019599
4.51054811;3.62745094
4.51054811;3.54901958
4.51467657;3.23529410
4.51879740;2.96078420
4.51879740;3.47058821
4.52295065;4.21568632
4.52691555;4.49019623
4.53119183;4.54901981
4.53119183;4.35294104
4.53526306;3.90196085
4.53938389;3.68627453
4.54351234;4.07843161
4.54351234;4.49019623
4.54747772;4.68627453
4.55154085;4.37254906
4.55576801;3.74509811
4.55576801;3.29411769
4.55988836;3.35294127
4.56385326;3.76470590
4.56803942;4.03921556
4.57215166;3.96078420
4.57622337;3.60784316
4.57622337;3.27450991
4.58027029;3.68627453
4.58434963;3.96078420
4.58847046;4.13725471
4.58847046;4.37254906
4.59260702;4.07843161
4.59673595;3.52941179
4.60065985;3.41176462
4.60065985;3.80392146
4.60487080;4.21568632
4.60894203;4.25490189
4.61312819;3.41176462
4.61725712;2.88235283
4.62123013;2.86274505
4.62123013;3.31372547
4.62535906;3.27450991
4.62943029;3.17647052
4.63361645;2.72549009
4.63361645;2.33333325
4.63758945;1.90196073
4.64165258;2.13725495
4.64579773;2.64705873
4.64579773;2.64705873
4.64978743;2.41176462
4.65390778;1.92156863
4.65806150;1.39215684
4.66223097;1.62745094
4.66635990;2.17647052
4.66635990;2.07843137
4.67036581;1.64705884
4.67449427;1.11764705
4.67860699;0.62745100
4.67860699;0.78431374
4.68276024;1.29411769
4.68673325;1.43137252
4.69091129;1.03921568
4.69091129;0.70588237
4.69504833;0.21568628
4.69912767;0.17647059
4.70328951;0.76470590
4.70726252;0.72549021
4.71134186;0.37254903
4.71134186;0.00000000
4.71546268;0.39215687
4.71960783;0.13725491
4.72352362;0.31372550
4.72352362;0.37254903
4.72766066;0.11764706
4.73185492;0.01960784
4.73595095;0.11764706
4.73595095;0.09803922
4.73998928;0.43137255
4.74424934;0.82352942
4.74823904;1.31372547
4.75245762;1.19607842
4.75648022;1.11764705
4.75648022;1.09803927
4.76040411;1.72549021
4.76456547;2.43137264
4.76868629;2.66666675
4.76868629;2.86274505
4.77278185;2.72549009
4.77679634;2.47058821
4.78091669;2.84313726
4.78091669;3.39215684
4.78506184;3.74509811
4.78919888;3.64705873
4.79331112;3.27450991
4.79730892;3.07843137
4.80143785;3.35294127
4.80143785;3.88235283
4.80557489;4.07843161
4.80968714;3.78431368
4.81368494;3.33333325
4.81368494;2.78431368
4.81785440;2.58823538
4.82194233;3.00000000
4.82611179;3.70588231
4.82611179;3.74509811
4.83019161;3.88235283
4.83415651;3.03921580
4.83827734;1.76470590
4.84243059;1.74509799
4.84662485;1.70588231
4.84662485;1.13725495
4.85058975;0.64705884
4.85473490;0.27450982
4.85885525;0.00000000
4.85885525;0.15686275
4.86300039;0.39215687
4.86697388;0.64705884
4.87125015;0.82352942
4.87125015;1.21568632
4.87523127;1.43137252
4.87932730;1.64705884
4.88340664;2.41176462
4.88340664;3.41176462
4.88743734;3.96078420
4.89152527;3.58823538
4.89152527;3.25490189
4.89564562;2.54901958
4.89986467;2.27450991
4.90382957;2.88235283
4.90382957;3.23529410
4.90799904;3.13725495
4.91211987;3.05882359
4.91625690;2.41176462
4.91625690;2.03921580
4.92022181;2.03921580
4.92435026;2.45098042
4.92851210;2.54901958
4.92851210;2.52941179
4.93262434;2.23529410
4.93674517;1.76470590
4.93674517;1.66666663
4.94066095;1.92156863
4.94480610;2.62745094
4.94893456;2.50980401
4.94893456;2.35294127
4.95302248;2.00000000
4.95715952;1.60784316
4.96114874;1.72549021
4.96114874;2.11764717
4.96531057;2.56862736
4.96943903;2.56862736
4.97362518;2.19607854
4.97362518;1.76470590
4.97759867;1.45098042
4.98171902;1.70588231
4.98171902;2.25490189
4.98584795;2.41176462
4.98987007;2.52941179
4.99399042;2.13725495
4.99399042;1.86274505
4.99811125;1.66666663
5.00223160;2.05882359
5.00636053;2.72549009
5.00636053;2.31372547
5.01030111;2.45098042
5.01439714;1.98039210
5.01856661;1.96078432
5.01856661;2.09803915
5.02265453;2.41176462
5.02684069;2.88235283
5.02684069;2.96078420
5.03081369;2.94117641
5.03497505;2.62745094
5.03910398;2.41176462
5.03910398;2.80392146
5.04322481;2.88235283
5.04722214;2.72549009
5.05134296;2.52941179
5.05134296;1.64705884
5.05549622;1.45098042
5.05960035;1.13725495
5.06376171;1.50980389
5.06376171;1.98039210
5.06771040;2.00000000
5.07177353;1.68627453
5.07593536;0.76470590
5.07990837;0.72549021
5.08414364;1.01960790
5.08414364;1.25490201
5.08814144;1.05882359
5.09230280;0.82352942
5.09650517;0.29411766
5.09650517;0.56862748
5.10047007;0.62745100
5.10461521;1.37254906
5.10872793;1.09803927
5.10872793;1.35294116
5.11267614;1.25490201
5.11699343;0.94117647
5.12096643;1.49019611
5.12510347;2.15686274
5.12918329;2.37254906
5.12918329;2.47058821
5.13328743;2.25490189
5.13730955;2.15686274
5.14139748;2.29411769
5.14139748;2.92156863
5.14559984;3.70588231
5.14972878;3.54901958
5.15382481;3.50980401
5.15382481;3.21568632
5.15787172;2.92156863
5.16197586;3.27450991
5.16612911;4.03921556
5.17024994;3.94117641
5.17424726;3.66666675
5.17424726;3.19607854
5.17835140;3.09803915
5.18248034;3.76470590
5.18661737;4.39215708
5.18661737;4.33333349
5.19065619;4.07843161
5.19479275;3.84313726
5.19890547;3.56862736
5.19890547;3.68627453
5.20296860;4.17647076
5.20696640;4.50980377
5.21120977;3.82352948
5.21528101;3.43137264
5.21948385;3.35294127
5.21948385;3.56862736
5.22335005;4.00000000
5.22740555;4.13725471
5.23151779;4.00000000
5.23151779;3.98039222
5.23580217;3.37254906
5.23987341;3.37254906
5.24399424;3.78431368
5.24399424;4.07843161
5.24800014;3.90196085
5.25212049;3.52941179
5.25620031;2.29411769
5.26023054;2.52941179
5.26430225;3.03921580
5.26430225;3.33333325
5.26841450;3.21568632
5.27251863;2.92156863
5.27673769;2.66666675
5.27673769;2.43137264
5.28067780;2.70588231
5.28486395;3.09803915
5.28898478;3.09803915
5.28898478;3.01960778
5.29312134;2.68627453
5.29725027;2.21568632
5.30121517;2.56862736
5.30536842;3.13725495
5.30948925;3.07843137
5.30948925;2.84313726
5.31349516;2.33333325
5.31765652;2.13725495
5.32177734;2.25490189
5.32177734;2.50980401
5.32587337;3.00000000
5.32996893;2.90196085
5.33396673;2.52941179
5.33396673;2.19607854
5.33827591;1.80392158
5.34222460;2.35294127
5.34632874;2.96078420
5.35026884;2.84313726
5.35448790;2.52941179
5.35448790;2.15686274
5.35855913;1.96078432
5.36274529;2.66666675
5.36684942;2.74509811
5.36684942;2.98039222
5.37085533;2.66666675
5.37498426;1.88235295
5.37906361;1.92156863
5.37906361;2.13725495
5.38315964;2.72549009
5.38720655;3.09803915
5.39126968;3.00000000
5.39126968;2.74509811
5.39541483;2.27450991
5.39961767;1.98039210
5.39961767;2.50980401
5.40351677;2.94117641
5.40767860;2.94117641
5.41186476;2.98039222
5.41186476;2.60784316
5.41599321;2.13725495
5.42008924;2.19607854
5.42424250;2.56862736
5.42424250;3.01960778
5.42823219;3.13725495
5.43236923;3.07843137
5.43647337;2.52941179
5.43647337;2.05882359
5.44053650;2.15686274
5.44465733;2.82352948
5.44465733;2.86274505
5.44874477;2.90196085
5.45284081;2.80392146
5.45698595;2.47058821
5.45698595;2.17647052
5.46095943;2.45098042
5.46507978;2.84313726
5.46921682;2.82352948
5.46921682;2.62745094
5.47326374;2.23529410
5.47731876;2.01960778
5.48139811;1.70588231
5.48139811;2.07843137
5.48560095;2.21568632
5.48974609;2.25490189
5.48974609;2.09803915
5.49374342;1.56862748
5.49783945;1.35294116
5.50198460;1.62745094
5.50198460;2.29411769
5.50607252;2.58823538
5.51016045;2.60784316
5.51416636;2.11764717
5.51416636;1.66666663
5.51836872;1.60784316
5.52239084;2.21568632
5.52651978;2.66666675
5.52651978;2.74509811
5.53055048;2.76470590
5.53471184;2.47058821
5.53471184;2.11764717
5.53887320;2.21568632
5.54296923;2.76470590
5.54709816;3.29411769
5.54709816;3.23529410
5.55117750;3.11764717
5.55524921;2.82352948
5.55934525;2.29411769
5.55934525;2.54901958
5.56336737;3.07843137
5.56740618;3.41176462
5.57151031;3.41176462
5.57151031;3.09803915
5.57567978;3.03921580
5.57985783;2.41176462
5.58376551;3.33333325
5.58790255;3.27450991
5.59217882;3.21568632
5.59217882;2.92156863
5.59624195;2.50980401
5.60023165;2.50980401
5.60435200;2.96078420
5.60435200;3.45098042
5.60849714;3.39215684
5.61255217;3.11764717
5.61674643;2.64705873
5.61674643;2.27450991
5.62072802;2.56862736
5.62486458;3.21568632
5.62893629;3.47058821
5.63303232;2.84313726
5.63720989;2.17647052
5.63720989;1.25490201
5.64122438;1.27450979
5.64533663;1.25490201
5.64941597;1.01960790
5.64941597;0.23529412
5.65361881;0.09803922
5.65758371;0.00000000
5.66171217;0.01960784
5.66171217;0.23529412
5.66584921;0.43137255
5.66992092;0.60784316
5.67397594;1.07843137
5.67830944;1.50980389
5.68228245;2.27450991
5.68228245;3.03921580
5.68640327;3.49019599
5.69042540;3.49019599
5.69450474;3.19607854
5.69450474;2.78431368
5.69865847;2.50980401
5.70268869;2.82352948
5.70682573;3.37254906
5.70682573;3.45098042
5.71083164;3.31372547
5.71495199;2.96078420
5.71922016;2.45098042
5.72320175;2.94117641
5.72732210;3.43137264
5.72732210;3.43137264
5.73133612;2.86274505
5.73544836;2.45098042
5.73957729;2.07843137
5.73957729;2.27450991
5.74373865;2.78431368
5.74771214;2.94117641
5.75186539;2.82352948
5.75186539;2.58823538
5.75595331;2.21568632
5.76008987;1.88235295
5.76421070;3.03921580
5.76815939;3.00000000
5.77227974;2.80392146
5.77227974;2.37254906
5.77640057;1.92156863
5.78042269;2.01960778
5.78460073;2.50980401
5.78460073;2.74509811
5.78874588;2.74509811
5.79286623;2.58823538
5.79698706;2.27450991
5.79698706;1.94117641
5.80096006;2.09803915
5.80524445;2.43137264
5.80921745;2.27450991
5.81336260;2.11764717
5.81743431;1.76470590
5.81743431;1.64705884
5.82139921;1.86274505
5.82557678;2.50980401
5.82964849;2.37254906
5.82964849;2.15686274
5.83372784;1.76470590
5.83776665;1.47058821
5.84188700;1.54901958
5.84188700;1.86274505
5.84611416;2.29411769
5.85025120;2.13725495
5.85423279;1.76470590
5.85835314;1.25490201
5.86247396;1.45098042
5.86247396;1.80392158
5.86662722;2.01960778
5.87060022;1.94117641
5.87471247;1.54901958
5.87471247;1.01960790
5.87889862;0.84313726
5.88302755;1.35294116
5.88710690;1.80392158
5.88710690;1.74509799
5.89120293;1.62745094
5.89522552;1.27450979
5.89932966;1.03921568
5.89932966;1.15686274
5.90351582;1.66666663
5.90761185;2.17647052
5.90761185;2.00000000
5.91151094;1.76470590
5.91563988;1.56862748
5.91979313;1.50980389
5.91979313;1.82352936
5.92384005;2.82352948
5.92796898;2.94117641
5.93223667;2.84313726
5.93223667;2.70588231
5.93618536;2.52941179
5.94023228;2.45098042
5.94431162;3.07843137
5.94431162;3.68627453
5.94838333;3.90196085
5.95252037;3.78431368
5.95252037;3.52941179
5.95668173;3.23529410
5.96063042;3.45098042
5.96476746;4.07843161
5.96476746;4.23529434
5.96892071;4.19607830
5.97312307;3.94117641
5.97724342;3.52941179
5.97724342;3.23529410
5.98120880;3.70588231
5.98533726;4.13725471
5.98946619;4.19607830
5.98946619;4.00000000
5.99361134;3.84313726
5.99761724;3.50980401
5.99761724;3.23529410
6.00172949;3.58823538
6.00589943;4.05882359
6.01000357;4.13725471
6.01000357;4.01960802
6.01395178;3.58823538
6.01820374;3.15686274
6.02220964;3.37254906
6.02220964;3.92156863
6.02639580;4.23529434
6.03045893;4.19607830
6.03444815;4.07843161
6.03444815;3.72549009
6.03859377;3.37254906
6.04272223;3.80392146
6.04679394;4.15686274
6.05080795;4.07843161
6.05496120;3.80392146
6.05496120;3.45098042
6.05909014;3.27450991
6.06321859;3.62745094
6.06730652;3.86274505
6.06730652;3.92156863
6.07129622;3.74509811
6.07542467;3.41176462
6.07951260;3.33333325
6.07951260;3.50980401
6.08364964;3.58823538
6.08764744;3.98039222
6.09184170;3.49019599
6.09592104;3.05882359
6.10010719;2.50980401
6.10010719;2.72549009
6.10423613;3.07843137
6.10823393;2.86274505
6.11236238;2.62745094
6.11236238;2.50980401
6.11648321;2.94117641
6.12047243;2.94117641
6.12458515;3.01960778
6.12458515;3.27450991
6.12871361;3.29411769
6.13289976;3.07843137
6.13702059;1.94117641
6.14097738;1.86274505
6.14522886;2.27450991
6.14522886;2.31372547
6.14920187;1.58823526
6.15332270;1.41176474
6.15760708;2.09803915
6.15760708;2.64705873
6.16145706;3.00000000
6.16551208;3.01960778
6.16972303;2.50980401
6.16972303;2.17647052
6.17367125;2.33333325
6.17784119;2.33333325
6.18198633;2.62745094
6.18604946;2.13725495
6.19022751;2.49019599
6.19022751;3.33333325
6.19418430;3.23529410
6.19825554;2.56862736
6.20249081;2.23529410
6.20249081;2.78431368
6.20654583;3.15686274
6.21050262;3.17647052
6.21463966;2.66666675
6.21463966;2.64705873
6.21879292;2.76470590
6.22297096;3.50980401
6.22709131;4.62745094
6.23121214;4.96078444
6.23520994;4.82352924
6.23520994;4.92156839
6.23942041;4.98039198
6.24352455;4.98039198
6.24766970;4.90196085
6.24766970;4.84313726
6.25163460;4.96078444
6.25577164;4.50980377
6.25990057;4.23529434
6.25990057;4.88235283
6.26388979;4.98039198
6.26797771;4.98039198
6.27222919;4.64705896
6.27619410;4.17647076
6.28033113;4.00000000
6.28033113;4.56862736
6.28432083;4.98039198
6.28846598;4.96078444
6.29257011;4.92156839
6.29257011;4.76470566
6.29670715;4.50980377
6.30076218;4.76470566
6.30480909;4.88235283
6.30480909;4.47058821
6.30896235;3.72549009
6.31311560;2.84313726
6.31717873;0.64705884
6.32116842;0.33333334
6.32527256;0.50980395
6.32527256;0.60784316
6.32938480;0.52941179
6.33356285;0.31372550
6.33753586;0.35294119
6.33753586;0.50980395
6.34171391;1.37254906
6.34579372;2.15686274
6.34997988;2.39215684
6.34997988;2.43137264
6.35396910;2.31372547
6.35822916;2.27450991
6.36222649;2.68627453
6.36222649;3.15686274
6.36633921;3.78431368
6.37048435;3.72549009
6.37048435;3.58823538
6.37445736;3.21568632
6.37860250;2.82352948
6.38268232;3.56862736
6.38268232;4.07843161
6.38675356;3.92156863
6.39082479;3.78431368
6.39489651;3.52941179
6.39489651;3.03921580
6.39908266;2.74509811
6.40317869;3.19607854
6.40729094;3.43137264
6.40729094;3.35294127
6.41132975;3.29411769
6.41548300;2.86274505
6.41548300;2.43137264
6.41955423;2.29411769
6.42373228;2.23529410
6.42786121;2.19607854
6.42786121;1.74509799
6.43185043;0.78431374
6.43592215;0.00000000
6.44010782;0.03921569
6.44010782;0.00000000
6.44419575;0.03921569
6.44816065;0.05882353
6.45228958;0.00000000
6.45228958;0.00000000
6.45639372;0.00000000
6.46052265;0.01960784
6.46052265;0.11764706
6.46451187;0.39215687
6.46870613;0.50980395
6.47280216;0.86274511
6.47280216;0.74509805
6.47698021;0.43137255
6.48096991;0.88235295
6.48522949;1.31372547
6.48522949;1.72549021
6.48919439;1.56862748
6.49335623;1.21568632
6.49741936;1.19607842
6.49741936;1.45098042
6.50140858;1.98039210
6.50554562;2.60784316
6.50554562;3.03921580
6.50963354;3.19607854
6.51377869;2.86274505
6.51775169;2.33333325
6.51775169;2.37254906
6.52189684;2.68627453
6.52604198;3.13725495
6.53023624;3.11764717
6.53023624;3.09803915
6.53418493;2.82352948
6.53839588;2.70588231
6.54243422;3.19607854
6.54243422;4.11764717
6.54661226;4.98039198
6.55073261;4.98039198
6.55468941;4.86274529
6.55884266;4.31372547
6.56292248;4.45098019
6.56292248;4.70588255
6.56700230;4.82352924
6.57116365;4.11764717
6.57518578;3.58823538
6.57518578;3.01960778
6.57933092;2.72549009
6.58338594;3.01960778
6.58754778;3.15686274
6.58754778;2.80392146
6.59157801;2.62745094
6.59569073;2.60784316
6.59986019;2.58823538
6.60385799;3.07843137
6.60794592;3.27450991
6.60794592;2.96078420
6.61210728;2.50980401
6.61622763;1.98039210
6.62029934;1.62745094
6.62029934;2.01960778
6.62427235;2.64705873
6.62836027;2.72549009
6.63251352;2.68627453
6.63251352;2.39215684
6.63665867;1.76470590
6.64075470;1.68627453
6.64478493;2.64705873
6.64891386;2.58823538
6.65308380;2.21568632
6.65308380;1.60784316
6.65722895;1.07843137
6.66116095;1.29411769
6.66530609;1.58823526
6.66530609;1.72549021
6.66941833;1.54901958
6.67361259;1.35294116
6.67767620;0.66666669
6.67767620;0.41176471
6.68172312;0.74509805
6.68585968;1.11764705
6.68996382;1.15686274
6.69392920;0.88235295
6.69822168;0.54901963
6.69822168;0.70588237
6.70216990;1.27450979
6.70632362;1.80392158
6.71045208;1.96078432
6.71045208;1.86274505
6.71444178;1.74509799
6.71863604;1.68627453
6.72266626;2.29411769
6.72266626;2.68627453
6.72681999;3.19607854
6.73079300;3.31372547
6.73495436;3.03921580
6.73909950;2.94117641
6.74321222;3.39215684
6.74321222;3.86274505
6.74717712;4.21568632
6.75125647;4.15686274
6.75551653;3.86274505
6.75551653;3.37254906
6.75951433;3.45098042
6.76361847;3.88235283
6.76763248;4.35294104
6.76763248;4.19607830
6.77179384;4.03921556
6.77597189;3.76470590
6.78008413;3.45098042
6.78422117;4.00000000
6.78821087;4.25490189
6.78821087;4.15686274
6.79235601;3.80392146
6.79647636;3.41176462
6.80060530;3.19607854
6.80060530;3.58823538
6.80458641;4.01960802
6.80866623;4.09803915
6.81284380;3.96078420
6.81284380;3.94117641
6.81691551;3.27450991
6.82093763;3.11764717
6.82523012;4.03921556
6.82925272;3.90196085
6.83333206;3.70588231
6.83333206;3.31372547
6.83732176;2.78431368
6.84136868;3.07843137
6.84558725;3.49019599
6.84558725;3.76470590
6.84965897;3.64705873
6.85386133;3.31372547
6.85781813;2.86274505
6.85781813;2.62745094
6.86197138;3.03921580
6.86610031;3.47058821
6.87022877;3.43137264
6.87022877;3.27450991
6.87417746;2.80392146
6.87826538;2.33333325
6.87826538;2.35294127
6.88240242;2.86274505
6.88649845;3.23529410
6.89064360;3.23529410
6.89064360;2.94117641
6.89462471;2.50980401
6.89874554;2.11764717
6.90296412;2.37254906
6.90296412;2.86274505
6.90710115;3.05882359
6.91120529;2.84313726
6.91520309;2.68627453
6.91520309;2.05882359
6.91929102;1.86274505
6.92347717;2.37254906
6.92347717;2.84313726
6.92746639;2.96078420
6.93162823;2.82352948
6.93577337;2.33333325
6.93577337;2.07843137
6.93986940;2.03921580
6.94400597;2.58823538
6.94795465;3.03921580
6.94795465;3.21568632
6.95218992;2.78431368
6.95618773;2.33333325
6.96026707;1.86274505
6.96026707;2.21568632
6.96434689;2.68627453
6.96839380;3.01960778
6.96839380;3.05882359
6.97256327;2.78431368
6.97666788;2.41176462
6.98086214;2.27450991
6.98086214;2.72549009
6.98482704;3.23529410
6.98896360;3.33333325
6.99307632;3.25490189
6.99307632;2.88235283
6.99716425;2.52941179
7.00119448;2.45098042
7.00529861;2.92156863
7.00529861;3.35294127
7.00936174;3.35294127
7.01352358;3.11764717
7.01352358;2.74509811
7.01750469;2.47058821
7.02163363;2.62745094
7.02578688;3.15686274
7.02578688;3.43137264
7.02997303;3.25490189
7.03410196;3.00000000
7.03823042;2.52941179
7.03823042;2.43137264
7.04221201;2.92156863
7.04633236;3.23529410
7.05045319;3.50980401
7.05045319;3.31372547
7.05451632;2.86274505
7.05863667;2.41176462
7.06275749;2.94117641
7.06685352;3.50980401
7.07094097;3.54901958
7.07094097;3.23529410
7.07497168;2.78431368
7.07912493;2.35294127
7.08318806;2.60784316
7.08318806;3.11764717
7.08733320;3.27450991
7.09138823;2.98039222
7.09543514;2.50980401
7.09543514;1.92156863
7.09957218;1.62745094
7.10365200;2.00000000
7.10768223;2.49019599
7.11181927;2.31372547
7.11598063;1.98039210
7.11598063;1.66666663
7.12006044;1.70588231
7.12415648;2.11764717
7.12813759;2.66666675
7.12813759;2.62745094
7.13227463;2.33333325
7.13644457;2.07843137
7.14050770;1.72549021
7.14050770;2.09803915
7.14450550;2.78431368
7.14869976;3.45098042
7.15288591;2.94117641
7.15697336;2.58823538
7.16110229;2.54901958
7.16110229;2.96078420
7.16523123;3.52941179
7.16922903;3.54901958
7.17333317;3.33333325
7.17333317;3.05882359
7.17734718;2.64705873
7.18145132;2.98039222
7.18554735;3.21568632
7.18554735;3.74509811
7.18964338;3.56862736
7.19375563;3.29411769
7.19774532;2.54901958
7.20188189;2.94117641
7.20599461;3.37254906
7.20599461;3.41176462
7.21022177;3.52941179
7.21416187;2.98039222
7.21832323;2.66666675
7.21832323;2.45098042
7.22247696;2.94117641
7.22659731;3.35294127
7.23073435;3.29411769
7.23073435;3.21568632
7.23469925;2.80392146
7.23886061;2.45098042
7.24295664;3.21568632
7.24705267;3.41176462
7.25114059;3.21568632
7.25114059;2.39215684
7.25513840;1.54901958
7.25933266;0.68627453
7.26342869;0.33333334
7.26342869;0.13725491
7.26736879;0.03921569
7.27150583;0.01960784
7.27565098;0.03921569
7.27565098;0.00000000
7.27985334;0.01960784
7.28397417;0.29411766
7.28797197;0.49019608
7.29222345;0.96078432
7.29622936;1.33333337
7.29622936;1.47058821
7.30035019;1.98039210
7.30431509;2.68627453
7.30842733;3.27450991
7.30842733;3.39215684
7.31249857;3.15686274
7.31664371;2.70588231
7.32074785;2.17647052
7.32074785;2.76470590
7.32480288;3.35294127
7.32887459;3.54901958
7.33299494;3.07843137
7.33716488;2.64705873
7.34135103;2.45098042
7.34135103;2.92156863
7.34534883;3.37254906
7.34945297;3.33333325
7.35359812;3.11764717
7.35359812;2.76470590
7.35758734;2.43137264
7.36170006;2.60784316
7.36582041;3.01960778
7.36582041;3.25490189
7.36997366;3.35294127
7.37404537;2.86274505
7.37812471;2.37254906
7.37812471;2.17647052
7.38225365;2.47058821
7.38647223;2.98039222
7.38647223;3.09803915
7.39043760;3.00000000
7.39444304;2.66666675
7.39855576;2.09803915
7.39855576;2.01960778
7.40279102;2.33333325
7.40681314;2.84313726
7.41088438;2.76470590
7.41088438;2.58823538
7.41488218;2.07843137
7.41905212;1.64705884
7.42322159;2.00000000
7.42322159;2.21568632
7.42735863;2.50980401
7.43130732;2.39215684
7.43130732;2.09803915
7.43543625;1.70588231
7.43957281;1.29411769
7.44362783;1.68627453
7.44362783;2.23529410
7.44765043;2.19607854
7.45176268;2.21568632
7.45588303;1.68627453
7.45588303;1.03921568
7.46006107;1.00000000
7.46421432;1.41176474
7.46816301;1.82352936
7.46816301;1.82352936
7.47233295;1.39215684
7.47646999;1.03921568
7.47646999;0.70588237
7.48057413;0.80392158
7.48456335;1.25490201
7.48869228;1.54901958
7.48869228;1.56862748
7.49280453;1.03921568
7.49689245;0.76470590
7.50109482;0.45098040
7.50109482;0.68627453
7.50518274;1.23529410
7.50921297;1.25490201
7.51330900;1.13725495
7.51330900;0.96078432
7.51742983;0.60784316
7.52156687;0.66666669
7.52156687;1.23529410
7.52555609;1.90196073
7.52961111;1.76470590
7.53374004;1.68627453
7.53374004;1.52941179
7.53777885;1.43137252
7.54194021;1.70588231
7.54608536;2.41176462
7.54608536;2.82352948
7.55019760;2.88235283
7.55422020;2.80392146
7.55829144;2.70588231
7.55829144;2.76470590
7.56238747;2.84313726
7.56658173;3.56862736
7.57067776;3.90196085
7.57464266;3.62745094
7.57873869;3.17647052
7.57873869;3.39215684
7.58285904;3.86274505
7.58702087;4.31372547
7.59119034;4.41176462
7.59119034;4.33333349
7.59518814;3.92156863
7.59932518;3.39215684
7.60347033;3.60784316
7.60347033;4.11764717
7.60759068;4.33333349
7.61157227;4.47058821
7.61571741;3.64705873
7.61984634;3.52941179
7.62397480;3.84313726
7.62397480;4.31372547
7.62794781;4.17647076
7.63214254;3.86274505
7.63618088;3.43137264
7.63618088;2.94117641
7.64031792;2.86274505
7.64429903;3.47058821
7.64843607;3.80392146
7.64843607;3.72549009
7.65251589;3.33333325
7.65664482;2.86274505
7.66081429;2.90196085
7.66477919;3.29411769
7.66894102;4.11764717
7.66894102;3.70588231
7.67309427;3.37254906
7.67721462;2.98039222
7.68134356;2.66666675
7.68134356;3.23529410
7.68529224;3.68627453
7.68945360;3.82352948
7.69353342;3.62745094
7.69353342;3.23529410
7.69749832;2.92156863
7.70161057;2.80392146
7.70575571;3.23529410
7.70986795;3.09803915
7.71406221;3.00000000
7.71406221;2.54901958
7.71822405;2.21568632
7.72220516;2.56862736
7.72633410;3.07843137
7.72633410;3.13725495
7.73044634;3.21568632
7.73445225;2.88235283
7.73858929;2.43137264
7.73858929;1.92156863
7.74275875;2.39215684
7.74687958;3.00000000
7.75099993;2.92156863
7.75495672;2.58823538
7.75917578;1.68627453
7.75917578;1.56862748
7.76320601;2.21568632
7.76730204;2.72549009
7.77143908;2.60784316
7.77143908;2.25490189
7.77543688;1.82352936
7.77954912;1.52941179
7.78367805;1.50980389
7.78367805;1.68627453
7.78784752;1.88235295
7.79181242;1.76470590
7.79593325;0.74509805
7.80010271;0.39215687
7.80420732;1.05882359
7.80420732;1.76470590
7.80818033;2.13725495
7.81228447;2.15686274
7.81637239;2.21568632
7.81637239;1.66666663
7.82054186;1.94117641
7.82458878;2.62745094
7.82864380;3.19607854
7.82864380;3.25490189
7.83274794;3.05882359
7.83690977;2.58823538
7.84098101;2.33333325
7.84098101;2.70588231
7.84518337;3.31372547
7.84922218;3.72549009
7.84922218;3.98039222
7.85326910;3.78431368
7.85747147;3.47058821
7.86160040;3.45098042
7.86160040;3.80392146
7.86558151;4.37254906
7.86963654;4.33333349
7.87379837;4.37254906
7.87379837;4.03921556
7.87776327;3.56862736
7.88189983;3.60784316
7.88610268;4.13725471
7.88610268;4.35294104
7.89011669;4.03921556
7.89431095;3.60784316
7.89431095;2.74509811
7.89830875;2.60784316
7.90237999;2.84313726
7.90660715;3.25490189
7.90660715;3.29411769
7.91071939;3.03921580
7.91470909;2.68627453
7.91882133;2.07843137
7.91882133;1.90196073
7.92295027;2.45098042
7.92709541;2.94117641
7.93121576;2.92156863
7.93121576;2.96078420
7.93517256;2.50980401
7.93926048;2.29411769
7.93926048;2.27450991
7.94343853;2.54901958
7.94750166;2.72549009
7.95155668;2.56862736
7.95155668;2.07843137
7.95561981;1.29411769
7.95979786;1.25490201
7.96390200;1.62745094
7.96390200;2.25490189
7.96794891;2.41176462
7.97222519;2.45098042
7.97622252;2.00000000
7.97622252;1.56862748
7.98034334;1.60784316
7.98447227;2.00000000
7.98447227;2.54901958
7.98840427;2.60784316
7.99257374;2.31372547
7.99666977;1.98039210
7.99666977;1.68627453
8.00074959;1.90196073
8.00474739;2.60784316
8.00894165;3.13725495
8.00894165;3.19607854
8.01301289;2.90196085
8.01720715;2.52941179
8.02127838;2.17647052
8.02127838;2.58823538
8.02524376;3.03921580
8.02939701;3.19607854
8.03357506;2.29411769
8.03771973;2.01960778
8.04171753;1.92156863
8.04171753;2.47058821
8.04582977;3.00000000
8.04994297;3.01960778
8.05408764;2.70588231
8.05408764;2.23529410
8.05816746;1.82352936
8.06215668;2.07843137
8.06624508;2.66666675
8.06624508;2.98039222
8.07039833;2.90196085
8.07450199;2.60784316
8.07849121;1.88235295
8.08262825;2.23529410
8.08675766;2.74509811
8.08675766;2.94117641
8.09090233;2.90196085
8.09494972;2.52941179
8.09918499;2.15686274
8.09918499;1.80392158
8.10314941;2.21568632
8.10734367;2.25490189
8.11147308;1.60784316
8.11147308;0.88235295
8.11546230;0.00000000
8.11954212;0.03921569
8.12367916;0.03921569
8.12775803;0.07843138
8.13176441;0.01960784
8.13176441;0.05882353
8.13590145;0.05882353
8.14002132;0.31372550
8.14411736;1.27450979
8.14411736;2.49019599
8.14812374;3.31372547
8.15224457;3.49019599
8.15644646;3.31372547
8.15644646;2.92156863
8.16059208;2.76470590
8.16472054;3.13725495
8.16868591;3.54901958
8.17283058;3.25490189
8.17695904;2.80392146
8.17695904;2.35294127
8.18107224;2.56862736
8.18516827;2.92156863
8.18914890;3.49019599
8.18914890;3.49019599
8.19330215;3.21568632
8.19744778;2.62745094
8.20154381;2.15686274
8.20154381;2.88235283
8.20561504;3.41176462
8.20968628;3.41176462
8.21386433;2.80392146
8.21786213;2.45098042
8.22208881;2.33333325
8.22208881;2.76470590
8.22607040;3.15686274
8.23015022;3.05882359
8.23431969;2.70588231
8.23431969;2.41176462
8.23832607;1.94117641
8.24240494;2.21568632
8.24654198;2.74509811
8.24654198;2.86274505
8.25069523;2.66666675
8.25465202;2.31372547
8.25873184;1.60784316
8.26287746;2.15686274
8.26698112;2.35294127
8.26698112;2.43137264
8.27120018;2.29411769
8.27514839;1.96078432
8.27930260;1.49019611
8.27930260;1.39215684
8.28343868;1.90196073
8.28758430;2.25490189
8.29172134;2.09803915
8.29172134;1.90196073
8.29570293;1.52941179
8.29981518;1.13725495
8.30395985;2.01960778
8.30787563;1.92156863
8.31212711;1.80392158
8.31212711;1.41176474
8.31617451;0.96078432
8.32044220;0.62745100
8.32448959;1.07843137
8.32448959;1.54901958
8.32842922;1.58823526
8.33257484;1.33333337
8.33663750;0.90196079
8.33663750;0.37254903
8.34073353;0.45098040
8.34480572;0.98039216
8.34889317;1.13725495
8.34889317;1.39215684
8.35303879;1.13725495
8.35719967;0.74509805
8.35719967;0.35294119
8.36133671;0.66666669
8.36530972;1.29411769
8.36938953;1.54901958
8.36938953;1.45098042
8.37352657;1.31372547
8.37761402;0.88235295
8.38175106;0.82352942
8.38175106;1.35294116
8.38579845;2.07843137
8.38985348;2.09803915
8.39406395;2.17647052
8.39406395;2.05882359
8.39811897;1.70588231
8.40217400;1.88235295
8.40217400;2.43137264
8.40631866;3.21568632
8.41043949;3.54901958
8.41457653;3.27450991
8.41457653;3.07843137
8.41855812;2.80392146
8.42271137;3.21568632
8.42681503;3.82352948
8.42681503;4.27450991
8.43101788;4.29411745
8.43499088;4.05882359
8.43931675;3.82352948
8.43931675;3.60784316
8.44320774;4.07843161
8.44736099;4.74509811
8.44736099;4.96078444
8.45133400;4.62745094
8.45548725;4.27450991
8.45950127;3.84313726
8.45950127;3.80392146
8.46363068;4.33333349
8.46774292;4.70588255
8.47181416;4.49019623
8.47181416;4.39215708
8.47587776;3.96078420
8.48009586;3.47058821
8.48421669;3.72549009
8.48421669;4.09803915
8.48818970;4.29411745
8.49232674;4.19607830
8.49232674;3.80392146
8.49646378;3.35294127
8.50055122;3.13725495
8.50464725;3.41176462
8.50464725;3.88235283
8.50865364;3.84313726
8.51279068;3.62745094
8.51688671;3.15686274
8.51688671;2.88235283
8.52096653;2.80392146
8.52512741;3.01960778
8.52911758;3.60784316
8.52911758;3.49019599
8.53327084;3.15686274
8.53747272;2.68627453
8.54146290;2.62745094
8.54556656;3.07843137
8.54971981;3.35294127
8.54971981;3.19607854
8.55384064;2.84313726
8.55779743;2.37254906
8.56190968;2.19607854
8.56190968;2.54901958
8.56599712;3.07843137
8.57018375;3.11764717
8.57423878;2.84313726
8.57423878;2.58823538
8.57831860;2.25490189
8.58237362;2.37254906
8.58655930;3.13725495
8.59062290;3.07843137
8.59475136;2.86274505
8.59475136;2.41176462
8.59881496;2.19607854
8.60291862;2.41176462
8.60708046;3.19607854
8.60708046;3.29411769
8.61122513;3.11764717
8.61519051;2.76470590
8.61930275;2.35294127
8.61930275;2.27450991
8.62343121;2.72549009
8.62751102;3.37254906
8.63151741;3.05882359
8.63569546;2.66666675
8.63976669;2.31372547
8.63976669;2.37254906
8.64391136;2.90196085
8.64799976;3.21568632
8.65210342;3.33333325
8.65210342;3.00000000
8.65613461;2.82352948
8.66031170;2.43137264
8.66441631;2.72549009
8.66441631;3.13725495
8.66844654;3.33333325
8.67258358;3.29411769
8.67669582;2.31372547
8.68084145;2.29411769
8.68492126;2.80392146
8.68492126;3.29411769
8.68893528;3.33333325
8.69303894;3.19607854
8.69715977;2.60784316
8.69715977;2.31372547
8.70125580;2.33333325
8.70529461;2.92156863
8.70937443;3.45098042
8.70937443;3.11764717
8.71353531;2.82352948
8.71764755;2.31372547
8.72180080;2.45098042
8.72581482;3.07843137
8.72992802;3.19607854
8.72992802;3.05882359
8.73407269;2.62745094
8.73822594;2.19607854
8.74216652;2.01960778
8.74216652;2.49019599
8.74630356;2.94117641
8.75039959;2.92156863
8.75449562;2.80392146
8.75449562;2.35294127
8.75851822;1.82352936
8.76262188;1.80392158
8.76674271;2.62745094
8.77084637;2.50980401
8.77499199;2.13725495
8.77499199;1.68627453
8.77912045;1.37254906
8.78317547;1.62745094
8.78732109;2.09803915
8.78732109;2.01960778
8.79130173;2.17647052
8.79542255;1.82352936
8.79955959;1.27450979
8.79955959;1.31372547
8.80372143;1.80392158
8.80787468;2.45098042
8.81179810;2.43137264
8.81179810;2.37254906
8.81587029;1.90196073
8.82002354;1.66666663
8.82002354;1.82352936
8.82411957;2.45098042
8.82813358;2.90196085
8.83223724;2.98039222
8.83223724;2.80392146
8.83638287;2.49019599
8.84049511;2.23529410
8.84464836;2.70588231
8.84464836;3.31372547
8.84868717;3.47058821
8.85279083;3.37254906
8.85694504;2.90196085
8.85694504;2.43137264
8.86108971;2.35294127
8.86521053;2.78431368
8.86521053;3.19607854
8.86930656;3.33333325
8.87328815;3.17647052
8.87742424;2.72549009
8.87742424;2.31372547
8.88144684;2.47058821
8.88555908;2.98039222
8.88967991;3.17647052
8.88967991;3.33333325
8.89378452;3.01960778
8.89792061;2.62745094
8.90198421;2.21568632
8.90198421;2.58823538
8.90630150;3.05882359
8.91010284;3.09803915
8.91010284;3.37254906
8.91422272;2.47058821
8.91826153;2.19607854
8.92243195;2.33333325
8.92243195;2.92156863
8.92657661;3.41176462
8.93069744;3.43137264
8.93476009;3.21568632
8.93476009;2.56862736
8.93879128;1.74509799
8.94288731;1.21568632
8.94698334;1.27450979
8.94698334;1.07843137
8.95107937;0.49019608
8.95511723;0.01960784
8.95511723;0.09803922
8.95922184;0.03921569
8.96339989;0.00000000
8.96755314;0.35294119
8.96755314;0.76470590
8.97156715;1.19607842
8.97567177;1.78431368
8.97980785;2.21568632
8.97980785;2.74509811
8.98394489;3.43137264
8.98807430;3.90196085
8.99219418;3.92156863
8.99219418;3.47058821
8.99620056;3.00000000
9.00027180;2.50980401
9.00440884;3.00000000
9.00839043;3.35294127
9.01255131;3.19607854
9.01255131;2.80392146
9.01666451;2.33333325
9.02080059;2.09803915
9.02489662;2.54901958
9.02489662;2.92156863
9.02887821;2.96078420
9.03297424;2.98039222
9.03710270;2.56862736
9.03710270;2.01960778
9.04125690;2.01960778
9.04532814;2.47058821
9.04944801;2.86274505
9.05357742;2.62745094
9.05769825;2.17647052
9.05769825;1.84313726
9.06163788;1.94117641
9.06572628;2.58823538
9.06990433;2.70588231
9.06990433;2.68627453
9.07400799;2.27450991
9.07808781;1.82352936
9.08215904;1.72549021
9.08215904;2.11764717
9.08631229;2.49019599
9.09040070;2.54901958
9.09459496;1.92156863
9.09855175;1.45098042
9.10267162;1.52941179
9.10267162;1.96078432
9.10680866;2.31372547
9.11094570;2.19607854
9.11507416;1.96078432
9.11507416;1.54901958
9.11928558;1.17647064
9.12320137;1.45098042
9.12737083;1.80392158
9.12737083;1.98039210
9.13148308;1.86274505
9.13543987;1.50980389
9.13956833;0.90196079
9.14365673;1.25490201
9.14778519;1.70588231
9.14778519;1.62745094
9.15172577;1.54901958
9.15585423;1.03921568
9.16009808;0.62745100
9.16009808;0.54901963
9.16417694;1.01960790
9.16819191;1.25490201
9.17231178;1.25490201
9.17231178;0.92156863
9.17645741;0.52941179
9.18055344;0.25490198
9.18464088;0.86274511
9.18863010;1.15686274
9.19275951;1.09803927
9.19275951;0.84313726
9.19684696;0.39215687
9.20103359;0.23529412
9.20511246;0.86274511
9.20511246;1.45098042
9.20916748;1.54901958
9.21323967;1.45098042
9.21745014;1.17647064
9.21745014;0.86274511
9.22157097;1.11764705
9.22554398;2.09803915
9.22968864;2.54901958
9.23382568;2.33333325
9.23794651;2.09803915
9.23794651;1.78431368
9.24198532;2.60784316
9.24622822;3.19607854
9.25029945;3.37254906
9.25029945;3.62745094
9.25434685;3.29411769
9.25831127;3.01960778
9.26244831;3.01960778
9.26244831;3.54901958
9.26653671;4.27450991
9.27065659;4.23529434
9.27480221;3.74509811
9.27878380;3.45098042
9.28290367;3.29411769
9.28290367;3.98039222
9.28727818;4.35294104
9.29117012;4.31372547
9.29534817;4.05882359
9.29534817;3.62745094
9.29932880;3.31372547
9.30339241;3.62745094
9.30755424;4.27450991
9.30755424;4.05882359
9.31151009;4.01960802
9.31559849;3.68627453
9.31978416;3.13725495
9.31978416;3.11764717
9.32387257;3.50980401
9.32796860;3.90196085
9.32796860;3.82352948
9.33210564;3.62745094
9.33618450;3.19607854
9.34027290;2.84313726
9.34027290;2.86274505
9.34445095;3.41176462
9.34844017;3.80392146
9.35263443;3.76470590
9.35263443;3.35294127
9.35668087;2.74509811
9.36082649;2.54901958
9.36494732;2.88235283
9.36494732;3.39215684
9.36892033;3.54901958
9.37317181;3.39215684
9.37317181;2.98039222
9.37712002;2.60784316
9.38123226;2.47058821
9.38534546;2.86274505
9.38534546;3.45098042
9.38937569;3.39215684
9.39346313;3.25490189
9.39769077;3.07843137
9.39769077;2.37254906
9.40162277;2.62745094
9.40581703;3.07843137
9.40994549;3.27450991
9.40994549;3.27450991
9.41407394;2.88235283
9.41820335;2.54901958
9.41820335;2.25490189
9.42216778;2.58823538
9.42632103;3.07843137
9.43041706;3.31372547
9.43041706;3.21568632
9.43449688;2.78431368
9.43849468;2.31372547
9.44266415;2.29411769
9.44266415;2.78431368
9.44672775;3.27450991
9.45090580;3.31372547
9.45496845;3.15686274
9.45496845;2.66666675
9.45918751;2.25490189
9.46312809;2.43137264
9.46312809;2.98039222
9.46732235;3.37254906
9.47145939;3.23529410
9.47557163;2.88235283
9.47557163;2.45098042
9.47956944;2.07843137
9.48367405;2.45098042
9.48782730;2.94117641
9.48782730;3.17647052
9.49180031;2.98039222
9.49588776;2.60784316
9.50014782;2.23529410
9.50014782;2.09803915
9.50411224;2.60784316
9.50822544;3.13725495
9.51227188;3.00000000
9.51642513;2.66666675
9.52056217;2.27450991
9.52056217;2.25490189
9.52460098;2.80392146
9.52867222;3.21568632
9.53280067;3.19607854
9.53280067;2.76470590
9.53688908;2.35294127
9.54107475;1.88235295
9.54517937;2.43137264
9.54517937;2.98039222
9.54917717;3.09803915
9.55329704;3.01960778
9.55742645;2.23529410
9.56153870;2.25490189
9.56551170;2.62745094
9.56551170;3.01960778
9.56961632;3.09803915
9.57373619;3.13725495
9.57788944;2.52941179
9.57788944;2.23529410
9.58185482;2.33333325
9.58617973;2.84313726
9.59012032;3.11764717
9.59012032;3.03921580
9.59429836;2.74509811
9.59841919;2.25490189
9.60238361;2.21568632
9.60656166;2.72549009
9.61069012;2.74509811
9.61069012;2.60784316
9.61481953;2.05882359
9.61880016;1.60784316
9.62289619;1.50980389
9.62289619;1.84313726
9.62696838;2.37254906
9.63109684;2.35294127
9.63523388;2.13725495
9.63523388;1.80392158
9.63922310;1.52941179
9.64335251;1.76470590
9.64746475;2.54901958
9.65162563;2.62745094
9.65568066;2.23529410
9.65568066;1.84313726
9.65981007;1.50980389
9.66394711;1.74509799
9.66806698;2.50980401
9.66806698;2.50980401
9.67219639;2.74509811
9.67617702;2.47058821
9.68032265;2.17647052
9.68032265;2.19607854
9.68438625;2.82352948
9.68848133;3.35294127
9.69253731;3.23529410
9.69680500;2.74509811
9.70077801;2.41176462
9.70077801;2.45098042
9.70491505;3.07843137
9.70890427;3.27450991
9.71322155;3.29411769
9.71322155;2.88235283
9.71716213;2.43137264
9.72122478;2.17647052
9.72537899;2.50980401
9.72537899;3.11764717
9.72940922;3.29411769
9.73355389;3.19607854
9.73769093;2.35294127
9.74168110;2.37254906
9.74581718;2.76470590
9.74581718;3.23529410
9.74997902;3.11764717
9.75405884;2.92156863
9.75817966;2.54901958
9.75817966;2.27450991
9.76216888;2.56862736
9.76628113;3.13725495
9.77037716;3.45098042
9.77037716;3.23529410
9.77453041;2.56862736
9.77872467;1.82352936
9.78258324;0.86274511
9.78672886;0.74509805
9.79088211;0.21568628
9.79088211;0.00000000
9.79506779;0.01960784
9.79917240;0.00000000
9.80312061;0.00000000
9.80312061;0.19607843
9.80732346;0.39215687
9.81138611;0.64705884
9.81546593;1.05882359
9.81546593;1.31372547
9.81959438;1.76470590
9.82361698;2.35294127
9.82778645;3.07843137
9.82778645;3.60784316
9.83171844;3.60784316
9.83596230;3.23529410
9.83596230;2.76470590
9.84016514;2.66666675
9.84418678;2.88235283
9.84831619;3.47058821
9.84831619;3.39215684
9.85226440;3.49019599
9.85643387;3.03921580
9.86055470;2.64705873
9.86055470;2.66666675
9.86469173;3.15686274
9.86865711;3.56862736
9.87281036;3.50980401
9.87281036;3.19607854
9.87697983;2.70588231
9.88102627;2.27450991
9.88102627;2.58823538
9.88515568;3.13725495
9.88921070;3.35294127
9.89328194;3.33333325
9.89328194;2.86274505
9.89740276;2.45098042
9.90151501;2.31372547
9.90546322;2.66666675
9.90546322;3.09803915
9.90966606;3.09803915
9.91374588;3.01960778
9.91794014;2.43137264
9.91794014;2.09803915
9.92192936;2.03921580
9.92618942;2.56862736
9.92618942;2.84313726
9.93015385;2.68627453
9.93425846;2.41176462
9.93840313;2.00000000
9.93840313;1.52941179
9.94236851;1.92156863
9.94644833;2.37254906
9.95068359;2.52941179
9.95068359;2.41176462
9.95480347;2.01960778
9.95878506;1.58823526
9.96288109;1.37254906
9.96288109;1.82352936
9.96704292;2.33333325
9.97119617;2.09803915
9.97119617;1.96078432
9.97516918;1.60784316
9.97928143;1.45098042
9.98342609;1.21568632
9.98342609;1.60784316
9.98756313;2.31372547
9.99171734;1.82352936
9.99572277;1.45098042
9.99572277;0.96078432
9.99985123;0.68627453
10.00392342;1.01960790
10.00802708;1.68627453
10.00802708;1.43137252
10.01218033;1.43137252
10.01621914;1.03921568
10.02026558;0.45098040
10.02434540;0.94117647
10.02847481;1.41176474
10.02847481;1.45098042
10.03247166;1.35294116
10.03659248;0.78431374
10.04074574;0.58823532
10.04074574;0.86274511
10.04494858;1.35294116
10.04890537;1.66666663
10.05311584;1.74509799
10.05311584;1.54901958
10.05717945;1.29411769
10.06127548;1.15686274
10.06531334;2.29411769
10.06942654;2.35294127
10.07348919;2.70588231
10.07348919;2.47058821
10.07761860;2.11764717
10.08181286;2.31372547
10.08598232;2.62745094
10.08598232;3.47058821
10.08985710;3.56862736
10.09401035;3.62745094
10.09817982;3.21568632
10.09817982;2.92156863
10.10216141;3.21568632
10.10628986;3.84313726
10.11044312;4.11764717
10.11442471;3.84313726
10.11870098;3.54901958
10.11870098;3.15686274
10.12264919;3.56862736
10.12677860;4.05882359
10.13089085;4.09803915
10.13089085;4.09803915
10.13503551;3.66666675
10.13911533;3.19607854
10.14318657;3.11764717
10.14318657;3.45098042
10.14722538;4.07843161
10.15134621;4.13725471
10.15540123;3.15686274
10.15956306;2.84313726
10.16368294;3.00000000
10.16368294;3.43137264
10.16782856;3.76470590
10.17185116;3.74509811
10.17593002;3.33333325
10.17593002;2.86274505
10.18006706;2.54901958
10.18419647;2.94117641
10.18843174;3.33333325
10.18843174;3.66666675
10.19224072;3.52941179
10.19636917;3.09803915
10.20056343;2.49019599
10.20466805;2.88235283
10.20872307;3.41176462
10.20872307;3.43137264
10.21272850;3.21568632
10.21682453;2.82352948
10.22105980;2.23529410
10.22105980;2.50980401
10.22518063;3.05882359
10.22914600;3.37254906
10.23329067;3.33333325
10.23329067;2.98039222
10.23745251;2.56862736
10.24156475;1.96078432
10.24556255;3.15686274
10.24963379;3.23529410
10.25372124;3.23529410
10.25372124;2.78431368
10.25791550;2.64705873
10.26184845;2.23529410
10.26610756;2.80392146
10.26610756;3.21568632
10.27008915;3.01960778
10.27427578;3.05882359
10.27834702;2.68627453
10.27834702;2.33333325
10.28243446;2.35294127
10.28656292;2.92156863
10.29067612;3.29411769
10.29482079;3.01960778
10.29894161;2.37254906
10.29894161;2.49019599
10.30289841;2.50980401
10.30705166;3.07843137
10.31113911;3.21568632
10.31113911;3.07843137
10.31521893;2.70588231
10.31942177;2.19607854
10.32334518;2.21568632
10.32334518;2.68627453
10.32749081;3.13725495
10.33159447;3.11764717
10.33560085;3.00000000
10.33560085;2.39215684
10.33972931;2.09803915
10.34391594;2.31372547
10.34391594;2.96078420
10.34806061;2.76470590
10.35218906;2.98039222
10.35617924;2.68627453
10.35617924;2.21568632
10.36031628;2.07843137
10.36444473;2.47058821
10.36857319;2.94117641
10.36857319;2.92156863
10.37251377;2.94117641
10.37664223;2.54901958
10.38077164;2.11764717
10.38077164;2.15686274
10.38494968;2.54901958
10.38902855;3.05882359
10.38902855;3.11764717
10.39314079;2.80392146
10.39715576;2.45098042
10.40134144;2.19607854
10.40134144;2.15686274
10.40527344;2.68627453
10.40936947;2.96078420
10.41345787;2.92156863
10.41345787;2.54901958
10.41761112;2.07843137
10.42188740;1.88235295
10.42593384;2.21568632
10.42593384;2.82352948
10.42992306;2.92156863
10.43403530;2.78431368
10.43403530;2.43137264
10.43813133;2.05882359
10.44207191;2.07843137
10.44627476;2.49019599
10.44627476;2.94117641
10.45042801;2.84313726
10.45449066;2.52941179
10.45866871;2.00000000
10.45866871;1.64705884
10.46263409;1.80392158
10.46681213;2.35294127
10.47093201;2.56862736
10.47093201;2.41176462
10.47505283;2.03921580
10.47916508;1.43137252
10.47916508;1.11764705
10.48317909;1.58823526
10.48729229;2.17647052
10.49141216;2.21568632
10.49141216;2.11764717
10.49536896;1.98039210
10.49949837;1.54901958
10.50367546;1.43137252
10.50367546;2.00000000
10.50780487;2.41176462
10.51189232;2.39215684
10.51596355;2.05882359
10.51596355;1.82352936
10.52029705;1.49019611
10.52417183;1.82352936
10.52826786;3.01960778
10.53220844;2.78431368
10.53642750;2.58823538
10.53642750;2.25490189
10.54055595;2.15686274
10.54468536;2.74509811
10.54880524;3.25490189
10.54880524;3.37254906
10.55272102;3.05882359
10.55690765;2.76470590
10.56099510;2.39215684
10.56099510;2.39215684
10.56508350;2.78431368
10.56928539;3.23529410
10.57325840;3.05882359
10.57733059;2.60784316
10.58145905;2.29411769
10.58145905;2.54901958
10.58548927;3.05882359
10.58965874;3.27450991
10.59374714;3.19607854
10.59374714;2.82352948
10.59792519;2.37254906
10.60202122;2.15686274
10.60615826;2.64705873
10.60615826;3.09803915
10.61014748;2.86274505
10.61428452;3.05882359
10.61843777;2.37254906
10.62249279;2.37254906
10.62658882;2.76470590
10.62658882;2.96078420
10.63070107;2.68627453
10.63473129;1.84313726
10.63886833;0.94117647
10.63886833;0.03921569
10.64289856;0.00000000
10.64708519;0.03921569
10.65109921;0.01960784
10.65109921;0.00000000
10.65530205;0.00000000
10.65926647;0.00000000
10.66342831;0.31372550
10.66749096;1.01960790
10.67169380;1.66666663
10.67169380;2.19607854
10.67566681;2.31372547
10.67977905;2.09803915
10.68393230;2.43137264
10.68393230;3.07843137
10.68802071;3.47058821
10.69206715;3.43137264
10.69611454;3.19607854
10.69611454;2.80392146
10.70018578;2.31372547
10.70452690;2.64705873
10.70846748;3.54901958
10.71253109;3.50980401
10.71661854;3.25490189
10.71661854;2.66666675
10.72080517;2.37254906
10.72490883;2.90196085
10.72905445;3.50980401
10.72905445;3.49019599
10.73318291;3.35294127
10.73716450;2.86274505
10.74135876;2.80392146
10.74135876;2.52941179
10.74536419;2.98039222
10.74946880;3.23529410
10.75360584;3.00000000
10.75767708;2.50980401
10.76190376;2.01960778
10.76190376;2.19607854
10.76581192;2.92156863
10.76989174;3.11764717
10.77402020;2.98039222
10.77402020;2.49019599
10.77818203;2.05882359
10.78213882;1.82352936
10.78633308;2.29411769
10.78633308;2.66666675
10.79042053;2.76470590
10.79452515;2.54901958
10.79866123;2.00000000
10.79866123;1.54901958
10.80266762;1.70588231
10.80674744;2.19607854
10.80674744;2.47058821
10.81088448;2.39215684
10.81494713;2.00000000
10.81910038;1.39215684
10.81910038;1.09803927
10.82311440;1.45098042
10.82720280;1.94117641
10.83133984;2.13725495
10.83133984;2.00000000
10.83533764;1.52941179
10.83954811;0.98039216
10.84366894;0.90196079
10.84366894;1.35294116
10.84779739;1.74509799
10.85192585;1.78431368
10.85192585;1.50980389
10.85590744;0.76470590
10.86023235;0.47058824
10.86423874;0.66666669
10.86423874;1.09803927
10.86835098;1.52941179
10.87232399;1.37254906
10.87645245;1.07843137
10.87645245;0.68627453
10.88052464;0.35294119
10.88463688;0.78431374
10.88875771;1.37254906
10.88875771;1.88235295
10.89276314;1.47058821
10.89688396;1.07843137
10.89688396;0.80392158
10.90110302;0.74509805
10.90517426;1.35294116
10.90933514;2.25490189
10.90933514;1.86274505
10.91327572;1.92156863
10.91746235;1.60784316
10.92145157;1.35294116
10.92145157;1.80392158
10.92550659;2.49019599
10.92957783;3.03921580
10.93372345;3.09803915
10.93372345;2.88235283
10.93786049;2.68627453
10.94202137;2.50980401
10.94202137;3.03921580
10.94607639;3.74509811
10.95012379;3.94117641
10.95423603;3.78431368
10.95423603;3.54901958
10.95839787;3.17647052
10.96236229;3.21568632
10.96651554;3.76470590
10.96651554;4.33333349
10.97067738;4.31372547
10.97480583;4.15686274
10.97891808;3.80392146
10.97891808;3.37254906
10.98289967;3.52941179
10.98717594;3.98039222
10.99114132;4.23529434
10.99530220;3.90196085
10.99935722;3.33333325
10.99935722;3.07843137
11.00339603;3.62745094
11.00748348;3.88235283
11.01157951;3.86274505
11.01157951;3.70588231
11.01564312;3.33333325
11.01978874;2.92156863
11.02385998;2.98039222
11.02385998;3.25490189
11.02801323;3.72549009
11.03217506;3.45098042
11.03611469;2.98039222
11.04030132;2.64705873
11.04442120;2.76470590
11.04442120;3.25490189
11.04855061;3.49019599
11.05251503;3.45098042
11.05664444;3.00000000
11.05664444;2.68627453
11.06074810;2.17647052
11.06482792;2.78431368
11.06900597;3.35294127
11.06900597;3.43137264
11.07309341;3.39215684
11.07714081;2.98039222
11.08127785;2.29411769
11.08536530;2.84313726
11.08948612;3.33333325
11.08948612;3.23529410
11.09351635;3.11764717
11.09765339;2.64705873
11.10180664;2.15686274
11.10180664;2.43137264
11.10577965;2.94117641
11.10991669;3.09803915
11.11403751;2.98039222
11.11403751;2.80392146
11.11815739;2.39215684
11.12222958;2.17647052
11.12621021;3.11764717
11.13040447;3.03921580
11.13451767;3.00000000
11.13451767;2.56862736
11.13870335;2.29411769
11.14264393;2.25490189
11.14675617;2.76470590
11.14675617;3.33333325
11.15088463;3.07843137
11.15508747;2.92156863
11.15913391;2.54901958
11.15913391;2.17647052
11.16305828;2.47058821
11.16722775;2.96078420
11.17143822;3.13725495
11.17555141;2.80392146
11.17954826;2.37254906
11.17954826;2.11764717
11.18366909;2.54901958
11.18774891;3.07843137
11.19186974;3.13725495
11.19186974;3.07843137
11.19592476;2.84313726
11.20011044;2.27450991
11.20407581;2.37254906
11.20407581;2.82352948
11.20820427;3.21568632
11.21231651;3.35294127
11.21640491;2.60784316
11.22055817;2.17647052
11.22465420;2.60784316
11.22465420;2.90196085
11.22879887;3.27450991
11.23277187;3.17647052
11.23690891;2.84313726
11.23690891;2.35294127
11.24102974;1.94117641
11.24516678;2.60784316
11.24924660;3.19607854
11.24924660;3.25490189
11.25333405;3.00000000
11.25742149;2.60784316
11.26151752;2.29411769
11.26562977;2.72549009
11.26961136;3.15686274
11.26961136;3.07843137
11.27373981;2.74509811
11.27785301;2.49019599
11.28194046;2.15686274
11.28194046;2.35294127
11.28605270;2.92156863
11.29012394;2.88235283
11.29428577;2.96078420
11.29428577;2.49019599
11.29840660;2.07843137
11.30242062;2.00000000
11.30653286;2.45098042
11.30653286;2.90196085
11.31063747;2.90196085
11.31476593;2.74509811
11.31476593;2.27450991
11.31886196;1.94117641
11.32281876;2.13725495
11.32715225;2.56862736
11.32715225;3.21568632
11.33108425;2.82352948
11.33518887;2.47058821
11.33937454;1.98039210
11.33937454;1.52941179
11.34338093;1.45098042
11.34752560;2.19607854
11.35165405;2.41176462
11.35165405;2.25490189
11.35579967;1.64705884
11.35974026;1.37254906
11.35974026;1.25490201
11.36392593;1.68627453
11.36804676;2.35294127
11.37220001;2.52941179
11.37220001;2.47058821
11.37621403;2.15686274
11.38030148;1.62745094
11.38441467;1.74509799
11.38441467;2.33333325
11.38865757;3.11764717
11.39257336;2.78431368
11.39664459;2.50980401
11.39664459;2.15686274
11.40070820;1.90196073
11.40482044;2.29411769
11.40482044;3.07843137
11.40895748;2.98039222
11.41306973;3.33333325
11.41706753;3.13725495
11.41706753;2.72549009
11.42130280;2.58823538
11.42542362;3.07843137
11.42955208;3.52941179
11.42955208;3.45098042
11.43350029;3.41176462
11.43763733;2.92156863
11.44176674;2.49019599
11.44176674;2.58823538
11.44580460;3.09803915
11.44981956;3.45098042
11.44981956;3.25490189
11.45404625;2.98039222
11.45808506;2.54901958
11.46218109;2.45098042
11.46218109;2.76470590
11.46622753;3.25490189
11.47040558;3.35294127
11.47451782;3.21568632
11.47451782;2.80392146
11.47867107;2.35294127
11.48266125;2.25490189
11.48676491;2.66666675
11.48676491;3.25490189
11.49092674;3.27450991
11.49510479;3.19607854
11.49917603;2.33333325
11.50318146;2.33333325
11.50726128;2.62745094
11.50726128;2.35294127
11.51147175;1.90196073
11.51554394;0.86274511
11.51957417;0.00000000
11.51957417;0.00000000
11.52369499;0.05882353
11.52792168;0.00000000
11.53196812;0.07843138
11.53196812;0.00000000
11.53599930;0.01960784
11.54016018;0.11764706
11.54413319;1.21568632
11.54832840;2.15686274
11.55235004;2.88235283
11.55235004;2.88235283
11.55639744;2.58823538
11.56049347;2.33333325
11.56458092;2.58823538
11.56458092;3.19607854
11.56871796;3.49019599
11.57278919;3.41176462
11.57683563;3.13725495
11.57683563;2.54901958
11.58094025;2.37254906
11.58506107;2.84313726
11.58926296;3.62745094
11.59329414;3.52941179
11.59741402;3.13725495
11.59741402;2.66666675
11.60154343;2.62745094
11.60566330;2.98039222
11.60965347;3.49019599
11.60965347;3.25490189
11.61379051;3.31372547
11.61791897;2.86274505
11.62199879;2.45098042
11.62199879;2.49019599
11.62607861;2.98039222
11.63009262;3.35294127
11.63416386;2.86274505
11.63833332;2.43137264
11.64245415;2.17647052
11.64245415;2.47058821
11.64643574;2.94117641
11.65059662;3.01960778
11.65476704;2.70588231
11.65476704;2.35294127
11.65892029;1.94117641
11.66289330;1.78431368
11.66708755;2.17647052
11.66708755;2.62745094
11.67117500;2.56862736
11.67529583;2.39215684
11.67941666;1.56862748
11.68341446;1.64705884
11.68749332;2.07843137
11.68749332;2.43137264
11.69155693;2.29411769
11.69571018;1.94117641
11.69970798;1.41176474
11.69970798;1.17647064
11.70382023;1.52941179
11.70794868;1.92156863
11.71215153;1.94117641
11.71215153;1.80392158
11.71609974;1.27450979
11.72021294;0.94117647
11.72442341;1.25490201
11.72854328;1.52941179
11.73267269;1.56862748
11.73267269;1.21568632
11.73660469;0.86274511
11.74079037;0.49019608
11.74490356;0.72549021
11.74490356;1.19607842
11.74899101;1.37254906
11.75307846;1.39215684
11.75709248;0.96078432
11.75709248;0.58823532
11.76127052;0.39215687
11.76533413;0.76470590
11.76934814;1.54901958
11.77343559;1.49019611
11.77755642;1.15686274
11.77755642;0.86274511
11.78176689;0.96078432
11.78596115;1.64705884
11.78990173;2.11764717
11.78990173;2.15686274
11.79403019;2.11764717
11.79810238;2.01960778
11.80229664;1.56862748
11.80229664;1.96078432
11.80626965;2.74509811
11.81034088;3.25490189
11.81443691;3.39215684
11.81443691;3.19607854
11.81864738;2.88235283
11.82269478;2.94117641
11.82269478;3.23529410
11.82678223;3.90196085
11.83082867;4.07843161
11.83502293;4.09803915
11.83502293;3.64705873
11.83918476;3.33333325
11.84311676;3.35294127
11.84725380;3.78431368
11.84725380;4.19607830
11.85141563;4.23529434
11.85551929;4.05882359
11.85954189;3.64705873
11.85954189;3.21568632
11.86366272;3.39215684
11.86778355;3.94117641
11.86778355;4.58823538
11.87187099;4.19607830
11.87581158;3.76470590
11.88010406;3.52941179
11.88010406;3.01960778
11.88405228;3.37254906
11.88825512;4.15686274
11.89231777;4.05882359
11.89231777;3.78431368
11.89631557;3.31372547
11.90047741;2.56862736
11.90465546;2.82352948
11.90465546;3.29411769
11.90879250;3.64705873
11.91291332;3.58823538
11.91291332;3.29411769
11.91692734;2.82352948
11.92102337;2.50980401
11.92514324;2.72549009
11.92514324;3.17647052
11.92919064;3.31372547
11.93322945;3.05882359
11.93735790;2.98039222
11.93735790;2.35294127
11.94150257;2.33333325
11.94567299;2.70588231
11.94962978;3.27450991
11.94962978;3.31372547
11.95386505;3.37254906
11.95789528;2.72549009
11.95789528;2.17647052
11.96199894;2.31372547
11.96619320;2.74509811
11.97006893;3.23529410
11.97006893;3.19607854
11.97418880;2.96078420
11.97835064;2.25490189
11.98253632;2.17647052
11.98253632;2.45098042
11.98647690;2.86274505
11.99065495;3.15686274
11.99475098;3.03921580
11.99475098;2.72549009
11.99886322;2.39215684
12.00280380;2.21568632
12.00712872;3.03921580
12.01106930;3.15686274
12.01523876;2.94117641
12.01523876;2.52941179
12.01919556;2.27450991
12.02334881;2.29411769
12.02746964;2.88235283
12.02746964;3.17647052
12.03165627;3.21568632
12.03578472;2.94117641
12.03975773;2.52941179
12.03975773;1.90196073
12.04391098;2.54901958
12.04803181;3.33333325
12.05216026;3.05882359
12.05615044;2.62745094
12.06032753;2.01960778
12.06032753;2.21568632
12.06444836;2.58823538
12.06856918;3.19607854
12.07265663;3.13725495
12.07265663;3.01960778
12.07665443;2.60784316
12.08081627;2.27450991
12.08487892;2.29411769
12.08487892;2.78431368
12.08899212;3.29411769
12.09305477;3.07843137
12.09706879;2.56862736
12.10118103;2.11764717
12.10535908;2.47058821
12.10535908;2.98039222
12.10941410;3.19607854
12.11350250;3.05882359
12.11766338;2.70588231
12.11766338;2.17647052
12.12173557;2.05882359
12.12586403;2.56862736
12.12982082;3.05882359
12.12982082;3.00000000
12.13395786;2.86274505
12.13807774;2.49019599
12.14227295;2.21568632
12.14619637;2.74509811
12.15030098;3.11764717
12.15030098;3.19607854
12.15452766;2.68627453
12.15864849;2.39215684
12.16278553;2.00000000
12.16278553;2.39215684
12.16672516;2.82352948
12.17089558;3.03921580
12.17501640;2.90196085
12.17501640;2.52941179
12.17916107;2.05882359
12.18320751;1.96078432
12.18733692;2.84313726
12.19144058;2.98039222
12.19556999;2.74509811
12.19556999;2.37254906
12.19954300;1.82352936
12.20360565;2.05882359
12.20774269;2.52941179
12.20774269;2.88235283
12.21183109;2.88235283
12.21593475;2.47058821
12.22010517;1.94117641
12.22010517;1.74509799
12.22406101;2.05882359
12.22827244;2.47058821
12.23241711;2.45098042
12.23640633;1.98039210
12.24051094;1.49019611
12.24051094;1.41176474
12.24466419;1.68627453
12.24877644;2.21568632
12.25286484;2.47058821
12.25286484;2.01960778
12.25682926;1.68627453
12.26097488;1.29411769
12.26507092;1.58823526
12.26507092;2.13725495
12.26919079;2.52941179
12.27324581;2.49019599
12.27731800;2.23529410
12.27731800;2.09803915
12.28147125;1.50980389
12.28566551;1.94117641
12.28566551;2.52941179
12.28965473;2.64705873
12.29375935;2.62745094
12.29790401;2.31372547
12.29790401;2.07843137
12.30203247;2.23529410
12.30616951;2.78431368
12.31011868;3.74509811
12.31011868;3.43137264
12.31427956;3.29411769
12.31837559;2.86274505
12.32246399;2.52941179
12.32246399;2.72549009
12.32645321;3.29411769
12.33061504;3.62745094
12.33061504;3.49019599
12.33470249;3.23529410
12.33882332;2.76470590
12.34295177;2.49019599
12.34295177;2.80392146
12.34714603;3.35294127
12.35114384;3.41176462
12.35535431;3.35294127
12.35535431;2.96078420
12.35928631;2.50980401
12.36338234;2.49019599
12.36751175;2.78431368
12.36751175;3.43137264
12.37166500;3.27450991
12.37574482;3.15686274
12.37574482;2.76470590
12.37970924;2.37254906
12.38383865;2.52941179
12.38794231;3.05882359
12.38794231;3.41176462
12.39207935;3.29411769
12.39606094;3.03921580
12.40019798;2.49019599
12.40019798;2.17647052
12.40436745;2.23529410
12.40844727;2.41176462
12.41266632;2.05882359
12.41266632;1.45098042
12.41663074;0.54901963
12.42077637;0.03921569
12.42077637;0.07843138
12.42492104;0.17647059
12.42904186;0.19607843
12.43317032;0.23529412
12.43317032;0.25490198
12.43712711;0.45098040
12.44128036;0.90196079
12.44534397;1.94117641
12.44534397;3.21568632
12.44940662;3.96078420
12.45350266;4.13725471
12.45756626;3.74509811
12.45756626;3.33333325
12.46169472;2.94117641
12.46585655;3.05882359
12.46991158;3.47058821
12.47417164;3.23529410
12.47816944;2.54901958
12.47816944;2.11764717
12.48228931;2.27450991
12.48627949;2.84313726
12.49040794;3.29411769
12.49040794;3.33333325
12.49453640;3.00000000
12.49860859;2.54901958
12.50272846;2.25490189
12.50272846;2.45098042
12.50670147;3.00000000
12.51086330;3.09803915
12.51495075;2.72549009
12.51915359;2.27450991
12.52307796;2.05882359
12.52307796;2.45098042
12.52718163;2.90196085
12.53134346;3.01960778
12.53551292;2.88235283
12.53551292;2.47058821
12.53951931;2.05882359
12.54363155;2.09803915
12.54776859;2.52941179
12.54776859;2.96078420
12.55191326;2.90196085
12.55603409;2.62745094
12.56012154;1.66666663
12.56410313;1.86274505
12.56819057;2.49019599
12.56819057;2.31372547
12.57232761;2.56862736
12.57629299;2.23529410
12.58050346;1.68627453
12.58050346;1.50980389
12.58457470;1.86274505
12.58868694;2.33333325
12.59281635;2.39215684
12.59281635;2.19607854
12.59688759;1.86274505
12.60113144;1.27450979
12.60514545;1.68627453
12.60926533;2.01960778
12.61341095;1.94117641
12.61341095;1.72549021
12.61739254;1.17647064
12.62148857;0.72549021
12.62561703;1.11764705
12.62561703;1.76470590
12.62958145;1.72549021
12.63368607;1.54901958
12.63785553;1.07843137
12.63785553;0.66666669
12.64193535;0.68627453
12.64606380;0.88235295
12.65006161;1.35294116
12.65420723;1.23529410
12.65840912;0.84313726
12.65840912;0.80392158
12.66253853;0.50980395
12.66652775;1.05882359
12.67063999;1.50980389
12.67063999;1.50980389
12.67472839;1.37254906
12.67890549;1.00000000
12.68303490;0.92156863
12.68303490;1.27450979
12.68712234;1.80392158
12.69115257;2.17647052
12.69521618;2.13725495
12.69931221;1.80392158
12.70338345;1.88235295
12.70338345;2.47058821
12.70743847;3.11764717
12.71161652;3.39215684
12.71572113;3.37254906
12.71572113;3.13725495
12.71970177;2.88235283
12.72387218;3.15686274
12.72800064;3.74509811
12.72800064;4.17647076
12.73213768;4.35294104
12.73620892;4.03921556
12.74026394;3.31372547
12.74440956;3.60784316
12.74848080;4.23529434
12.74848080;4.47058821
12.75266647;4.15686274
12.75664806;3.96078420
12.76075172;3.68627453
12.76075172;3.45098042
12.76486492;3.88235283
12.76900101;4.29411745
12.77318764;4.29411745
12.77318764;4.03921556
12.77711964;3.68627453
12.78116703;3.13725495
12.78536129;3.25490189
12.78536129;3.74509811
12.78948975;4.05882359
12.79351997;3.94117641
12.79351997;3.68627453
12.79764843;3.27450991
12.80178547;2.76470590
12.80591488;3.09803915
12.80591488;3.54901958
12.80985451;3.72549009
12.81406593;3.54901958
12.81807995;3.21568632
12.81807995;2.72549009
12.82219219;2.45098042
12.82624722;3.03921580
12.83030224;3.56862736
12.83030224;3.54901958
12.83452129;3.33333325
12.83869934;2.80392146
12.83869934;2.39215684
12.84270477;2.54901958
12.84675980;2.96078420
12.85089684;3.33333325
12.85089684;3.35294127
12.85500908;3.03921580
12.85913849;2.58823538
12.86327457;2.19607854
12.86327457;2.47058821
12.86725616;3.07843137
12.87141800;3.21568632
12.87557125;3.07843137
12.87557125;2.68627453
12.87955284;2.23529410
12.88361549;2.13725495
12.88361549;2.66666675
12.88790035;3.23529410
12.89187336;3.15686274
12.89598560;2.88235283
12.89598560;2.54901958
12.90006542;2.17647052
12.90404701;2.31372547
12.90826511;2.84313726
12.90826511;3.13725495
12.91236973;3.11764717
12.91631031;2.84313726
12.92051220;2.39215684
12.92051220;2.03921580
12.92464924;2.49019599
12.92877007;3.00000000
12.92877007;3.31372547
12.93276787;3.07843137
12.93685532;2.74509811
12.94105816;2.25490189
12.94105816;2.31372547
12.94508076;2.66666675
12.94920063;3.23529410
12.95329666;3.17647052
12.95329666;2.96078420
12.95739269;2.60784316
12.96145630;2.31372547
12.96563435;2.47058821
12.96563435;3.01960778
12.96970558;3.25490189
12.97373581;3.35294127
12.97786427;2.54901958
12.98200989;2.15686274
12.98613071;2.56862736
12.98613071;3.07843137
12.99012852;3.33333325
12.99430561;3.19607854
12.99844265;2.84313726
12.99844265;2.31372547
13.00278473;2.33333325
13.00652027;2.84313726
13.01061630;3.35294127
13.01061630;3.13725495
13.01490879;3.03921580
13.01892281;2.62745094
13.02295303;2.39215684
13.02705765;2.84313726
13.03106308;3.23529410
13.03106308;3.19607854
13.03517628;2.88235283
13.03940296;2.43137264
13.04353142;2.19607854
13.04353142;2.49019599
13.04751301;2.90196085
13.05165863;3.13725495
13.05577850;3.05882359
13.05577850;2.82352948
13.05972767;2.25490189
13.06382370;2.23529410
13.06796074;3.15686274
13.07208061;3.15686274
13.07620144;2.96078420
13.07620144;2.58823538
13.08017445;2.33333325
13.08436108;2.45098042
13.08848095;2.96078420
13.08848095;3.25490189
13.09259319;3.21568632
13.09662437;2.82352948
13.10076141;2.49019599
13.10076141;2.05882359
13.10488987;2.31372547
13.10903454;2.90196085
13.11315536;2.66666675
13.11711216;2.21568632
13.12122440;1.74509799
13.12122440;1.52941179
13.12531281;2.15686274
13.12941647;2.45098042
13.13343048;2.47058821
13.13343048;2.05882359
13.13756752;1.66666663
13.14167976;1.27450979
13.14585781;1.45098042
13.14585781;2.07843137
13.14980698;2.41176462
13.15409946;2.35294127
13.15814590;1.78431368
13.16225815;1.52941179
13.16640377;2.03921580
13.16640377;2.31372547
13.17038536;2.64705873
13.17452145;2.52941179
13.17861748;2.11764717
13.17861748;1.80392158
13.18277931;1.86274505
13.18673611;2.50980401
13.19082355;3.03921580
13.19082355;3.17647052
13.19493675;2.86274505
13.19905663;2.68627453
13.20319366;2.62745094
13.20727348;3.17647052
13.21131229;3.49019599
13.21131229;3.35294127
13.21542454;3.01960778
13.21960258;2.60784316
13.22364902;2.37254906
13.22364902;2.78431368
13.22778606;3.31372547
13.23190689;3.43137264
13.23611736;3.29411769
13.23611736;2.84313726
13.24014759;2.27450991
13.24414539;2.39215684
13.24822521;3.33333325
13.25235367;3.13725495
13.25644207;3.01960778
13.25644207;2.56862736
13.26050472;2.07843137
13.26456833;2.39215684
13.26869678;2.90196085
13.26869678;3.15686274
13.27281761;3.15686274
13.27681541;2.78431368
13.28105068;2.09803915
13.28105068;2.27450991
13.28503990;2.49019599
13.28921032;2.98039222
13.29339600;2.58823538
13.29339600;2.03921580
13.29741001;1.21568632
13.30150604;0.37254903
13.30150604;0.11764706
13.30565166;0.17647059
13.30973911;0.19607843
13.31369591;0.00000000
13.31369591;0.01960784
13.31785774;0.05882353
13.32194519;0.35294119
13.32611465;0.76470590
13.32611465;1.78431368
13.33005524;2.50980401
13.33418369;3.05882359
13.33831310;3.17647052
13.33831310;3.05882359
13.34245777;2.62745094
13.34666061;3.00000000
13.34666061;3.39215684
13.35064983;3.37254906
13.35476208;3.19607854
13.35888290;2.76470590
13.35888290;2.19607854
13.36302757;2.19607854
13.36708260;2.74509811
13.37110519;3.17647052
13.37110519;3.01960778
13.37519264;2.78431368
13.37936306;2.35294127
13.38345909;2.05882359
13.38345909;2.33333325
13.38744831;2.84313726
13.39164257;3.01960778
13.39164257;2.88235283
13.39577103;2.64705873
13.39967918;2.17647052
13.40384865;1.68627453
13.40384865;2.43137264
13.40802670;2.86274505
13.41214752;2.90196085
13.41627598;2.66666675
13.41627598;2.37254906
13.42025757;1.70588231
13.42440224;1.96078432
13.42853165;2.27450991
13.42853165;2.80392146
13.43265152;2.74509811
13.43676376;2.47058821
13.43676376;2.01960778
13.44079494;1.70588231
13.44485760;1.98039210
13.44897842;2.52941179
13.44897842;2.66666675
13.45313168;2.52941179
13.45710468;2.11764717
13.46124172;1.70588231
13.46124172;1.60784316
13.46538734;2.00000000
13.46942520;2.47058821
13.47357082;2.43137264
13.47357082;2.19607854
13.47754383;1.70588231
13.48170567;1.25490201
13.48589993;1.76470590
13.48988152;1.94117641
13.49414063;1.92156863
13.49414063;1.62745094
13.49808121;1.11764705
13.50218582;0.68627453
13.50633049;1.07843137
13.50633049;1.52941179
13.51029587;1.70588231
13.51444054;1.47058821
13.51853657;1.05882359
13.51853657;0.52941179
13.52268982;0.49019608
13.52682686;0.80392158
13.53086567;1.19607842
13.53499413;1.13725495
13.53915596;0.78431374
13.53915596;0.41176471
13.54313755;0.56862748
13.54724121;1.03921568
13.55137825;1.37254906
13.55137825;1.41176474
13.55546665;1.17647064
13.55956268;0.70588237
13.56368256;0.50980395
13.56368256;1.03921568
13.56776237;1.58823526
13.57187462;2.05882359
13.57598686;1.74509799
13.58010006;1.72549021
13.58411407;1.70588231
13.58411407;2.37254906
13.58822632;3.09803915
13.59228134;3.29411769
13.59641838;3.15686274
13.59641838;2.86274505
13.60048103;2.70588231
13.60461807;2.90196085
13.60874748;3.54901958
13.60874748;3.76470590
13.61289215;4.15686274
13.61688137;3.94117641
13.62114143;3.35294127
13.62508202;3.72549009
13.62916183;4.39215708
13.62916183;4.60784292
13.63318348;4.41176462
13.63732910;4.07843161
13.64149857;3.52941179
13.64149857;3.52941179
13.64555359;3.98039222
13.64969921;4.35294104
13.65373707;4.58823538
13.65373707;4.45098019
13.65787411;3.74509811
13.66199493;3.41176462
13.66614056;4.00000000
13.67012119;4.29411745
13.67423344;4.07843161
13.67423344;3.76470590
13.67837048;3.31372547
13.68257332;3.05882359
13.68664455;3.41176462
13.68664455;3.94117641
13.69068336;4.01960802
13.69476318;3.84313726
13.69885063;3.33333325
13.69885063;2.96078420
13.70299625;2.80392146
13.70709991;3.25490189
13.71106529;3.64705873
13.71517754;3.54901958
13.71948624;3.03921580
13.71948624;2.52941179
13.72331238;2.68627453
13.72743225;3.15686274
13.73163509;3.49019599
13.73163509;3.45098042
13.73578835;3.03921580
13.73990917;2.56862736
13.74388218;2.27450991
13.74388218;2.72549009
13.74798679;3.13725495
13.75209904;2.96078420
13.75624371;3.09803915
13.75624371;2.72549009
13.76023388;2.33333325
13.76431274;2.23529410
13.76431274;2.80392146
13.76843357;3.27450991
13.77257061;3.17647052
13.77665043;2.88235283
13.77665043;2.50980401
13.78069687;2.11764717
13.78487492;2.33333325
13.78900337;2.80392146
13.78900337;3.05882359
13.79314041;2.98039222
13.79711342;2.70588231
13.80123425;2.27450991
13.80123425;2.01960778
13.80531406;2.47058821
13.80945110;2.98039222
13.80945110;3.17647052
13.81342411;3.07843137
13.81755257;2.64705873
13.82165718;2.09803915
13.82165718;2.25490189
13.82579422;2.68627453
13.82993889;2.98039222
13.83402729;2.96078420
13.83402729;2.82352948
13.83807373;2.54901958
13.84226036;2.13725495
13.84637260;2.35294127
13.84637260;2.92156863
13.85037041;3.23529410
13.85449028;3.09803915
13.85449028;2.78431368
13.85861969;2.33333325
13.86282158;2.29411769
13.86694241;2.58823538
13.86694241;3.07843137
13.87094021;3.15686274
13.87505245;3.03921580
13.87915707;2.56862736
13.87915707;2.35294127
13.88322830;2.27450991
13.88722610;2.74509811
13.89137936;3.43137264
13.89137936;3.13725495
13.89547539;2.84313726
13.89961243;2.35294127
13.89961243;2.07843137
13.90360165;2.41176462
13.90772247;2.94117641
13.91184235;3.15686274
13.91184235;3.03921580
13.91597176;2.68627453
13.92008400;2.25490189
13.92408180;2.07843137
13.92408180;2.49019599
13.92826748;3.03921580
13.93232250;3.15686274
13.93650055;3.23529410
13.93650055;2.49019599
13.94041634;2.17647052
13.94454575;2.07843137
13.94865799;3.09803915
13.95280266;3.01960778
13.95693111;2.80392146
13.95693111;2.64705873
13.96107674;2.00000000
13.96512318;2.13725495
13.96925259;2.70588231
13.96925259;3.01960778
13.97325039;2.90196085
13.97733784;2.54901958
13.98149967;2.01960778
13.98149967;1.88235295
13.98563671;2.35294127
13.98973274;2.84313726
13.99373817;2.70588231
13.99783421;2.27450991
14.00191402;1.98039210
14.00191402;2.01960778
14.00605869;2.56862736
14.01003170;2.96078420
14.01415253;2.92156863
14.01415253;2.66666675
14.01837158;2.25490189
14.02245140;1.84313726
14.02663708;2.21568632
14.02663708;2.80392146
14.03061008;3.05882359
14.03473091;2.90196085
14.03885174;2.00000000
14.04298878;1.78431368
14.04707623;2.29411769
14.04707623;2.72549009
14.05113125;2.68627453
14.05525208;2.58823538
14.05933952;1.98039210
14.05933952;1.39215684
14.06337070;1.60784316
14.06743336;1.96078432
14.07153797;2.27450991
14.07153797;2.23529410
14.07566643;1.96078432
14.07977867;1.58823526
14.08381748;1.62745094
14.08808517;2.13725495
14.09214020;2.45098042
14.09214020;2.39215684
14.09626102;2.09803915
14.10024261;1.62745094
14.10435486;1.45098042
14.10435486;1.90196073
14.10849190;2.37254906
14.11263657;2.54901958
14.11675739;2.29411769
14.11675739;1.98039210
14.12069798;1.60784316
14.12482643;1.92156863
14.12898827;3.11764717
14.13310909;3.23529410
14.13705730;3.01960778
14.13705730;2.64705873
14.14115334;2.41176462
14.14531517;2.62745094
14.14944363;3.13725495
14.14944363;3.27450991
14.15342522;3.25490189
14.15760326;3.01960778
14.16177273;2.39215684
14.16177273;2.21568632
14.16588497;2.72549009
14.16995621;3.31372547
14.17412567;3.09803915
14.17807484;2.64705873
14.18224430;2.27450991
14.18224430;2.43137264
14.18634892;3.00000000
14.19028854;3.31372547
14.19447517;3.23529410
14.19447517;2.96078420
14.19861984;2.43137264
14.20290470;2.17647052
14.20685291;2.60784316
14.20685291;3.17647052
14.21090031;3.37254906
14.21506119;3.35294127
14.21904278;2.60784316
14.22317982;2.21568632
14.22715282;2.39215684
14.22715282;2.33333325
14.23136330;2.13725495
14.23549271;1.09803927
14.23963737;0.11764706
14.23963737;0.03921569
14.24363518;0.09803922
14.24769878;0.01960784
14.25183582;0.13725491
14.25183582;0.00000000
14.25590706;0.07843138
14.26006031;0.13725491
14.26404190;0.41176471
14.26404190;1.39215684
14.26823616;2.66666675
14.27229881;3.21568632
14.27229881;3.19607854
14.27641964;3.09803915
14.28045845;2.80392146
14.28459549;2.78431368
14.28459549;3.17647052
14.28876495;3.56862736
14.29287720;3.56862736
14.29701424;3.39215684
14.29701424;3.01960778
14.30113506;2.64705873
14.30507565;2.54901958
14.30920410;3.15686274
14.30920410;3.62745094
14.31340599;3.54901958
14.31741238;3.23529410
14.31741238;2.86274505
14.32148361;2.47058821
14.32562065;2.90196085
14.32971668;3.29411769
14.32971668;3.31372547
14.33372307;3.31372547
14.33785152;2.90196085
14.34202099;2.49019599
14.34202099;2.27450991
14.34603500;2.70588231
14.35002518;3.13725495
14.35426044;3.07843137
14.35426044;2.74509811
14.35836411;2.31372547
14.36248493;1.92156863
14.36248493;2.13725495
14.36663818;2.64705873
14.37060261;2.92156863
14.37469864;2.74509811
14.37469864;2.50980401
14.37879467;2.00000000
14.38293171;1.64705884
14.38704395;1.98039210
14.38704395;2.47058821
14.39110756;2.56862736
14.39524460;2.35294127
14.39928341;1.94117641
14.39928341;1.52941179
14.40328884;1.43137252
14.40748310;1.84313726
14.40748310;2.33333325
14.41161251;2.19607854
14.41573238;1.96078432
14.41979599;1.49019611
14.41979599;1.03921568
14.42385960;1.29411769
14.42812729;1.64705884
14.43218231;1.96078432
14.43218231;1.82352936
14.43621254;1.37254906
14.44029236;1.00000000
14.44437218;0.76470590
14.44437218;1.11764705
14.44853306;1.56862748
14.45262146;1.56862748
14.45678329;0.84313726
14.46067429;0.47058824
14.46483517;0.45098040
14.46483517;0.88235295
14.46892357;1.25490201
14.47306061;1.29411769
14.47719765;1.07843137
14.47719765;0.49019608
14.48124409;0.35294119
14.48537254;0.62745100
14.48951817;1.11764705
14.48951817;1.25490201
14.49349117;1.50980389
14.49757099;1.27450979
14.50170803;0.82352942
14.50579548;1.37254906
14.50994110;2.01960778
14.50994110;2.58823538
14.51404476;2.29411769
14.51805878;2.03921580
14.52216339;1.66666663
14.52216339;2.01960778
14.52626705;2.66666675
14.53031445;3.31372547
14.53448391;3.41176462
14.53448391;3.27450991
14.53866196;3.19607854
14.54271698;2.90196085
14.54688644;3.84313726
14.55085945;4.21568632
14.55509472;4.27450991
14.55509472;3.92156863
14.55905151;3.56862736
14.56316376;3.37254906
14.56729317;3.90196085
14.56729317;4.37254906
14.57127380;4.43137264
14.57541084;4.21568632
14.57952404;3.84313726
14.57952404;3.41176462
14.58352089;3.49019599
14.58769894;3.94117641
14.59188557;4.31372547
14.59600544;4.01960802
14.60004425;3.50980401
14.60004425;2.98039222
14.60409927;3.37254906
14.60824490;3.92156863
14.61243057;4.09803915
14.61243057;4.00000000
14.61655998;3.80392146
14.62054062;3.01960778
14.62462902;2.90196085
14.62462902;3.23529410
14.62878227;3.54901958
14.63287830;3.82352948
14.63693333;3.25490189
14.64108658;2.78431368
14.64509201;2.78431368
14.64509201;3.27450991
14.64921284;3.60784316
14.65343189;3.70588231
14.65738869;3.23529410
14.65738869;2.84313726
14.66155815;2.27450991
14.66559696;2.64705873
14.66966057;3.25490189
14.66966057;3.41176462
14.67365742;3.29411769
14.67781162;3.01960778
14.68198872;2.43137264
14.68610191;2.80392146
14.69022179;3.29411769
14.69022179;3.35294127
14.69416237;3.21568632
14.69828320;2.72549009
14.70242023;2.47058821
14.70242023;2.37254906
14.70655727;2.94117641
14.71052170;3.31372547
14.71468353;3.29411769
14.71468353;3.01960778
14.71887779;2.64705873
14.72301483;2.17647052
14.72712708;3.01960778
14.73112488;3.17647052
14.73524570;3.11764717
14.73524570;2.80392146
14.73937416;2.29411769
14.74350262;2.17647052
14.74745178;2.70588231
14.74745178;3.21568632
14.75153923;3.29411769
14.75570107;3.07843137
14.75978851;2.66666675
14.75978851;2.21568632
14.76381111;2.33333325
14.76803780;2.76470590
14.77209282;3.21568632
14.77209282;3.21568632
14.77616405;2.92156863
14.78031731;2.41176462
14.78031731;2.17647052
14.78431511;2.41176462
14.78846073;3.01960778
14.79254818;3.21568632
14.79254818;3.15686274
14.79671764;2.74509811
14.80071545;2.31372547
14.80482769;2.13725495
14.80482769;2.66666675
14.80894852;3.13725495
14.81314278;2.88235283
14.81719780;3.01960778
14.81719780;2.58823538
14.82117939;2.13725495
14.82531643;2.21568632
14.82531643;2.88235283
14.82943726;3.11764717
14.83353329;3.19607854
14.83758831;2.90196085
14.83758831;2.43137264
14.84174919;2.35294127
14.84587002;2.47058821
14.84999847;3.13725495
14.84999847;3.25490189
14.85411930;3.25490189
14.85811710;2.78431368
14.86223793;2.37254906
14.86223793;1.98039210
14.86637497;2.64705873
14.87043762;3.19607854
14.87043762;3.25490189
14.87441921;3.11764717
14.87853146;2.56862736
14.88265991;2.17647052
14.88265991;2.31372547
14.88683796;2.94117641
14.89076996;3.19607854
14.89511204;3.19607854
14.89511204;2.70588231
14.89906120;2.39215684
14.90328789;2.01960778
14.90737534;2.49019599
14.90737534;3.03921580
14.91134834;3.15686274
14.91549397;3.03921580
14.91549397;2.41176462
14.91955757;2.17647052
14.92375183;2.00000000
14.92774105;2.37254906
14.92774105;2.94117641
14.93187809;3.00000000
14.93594933;2.84313726
14.94011879;2.37254906
14.94011879;1.98039210
14.94410038;2.09803915
14.94828606;2.64705873
14.95234108;2.98039222
14.95234108;2.96078420
14.95660973;2.88235283
14.96063995;2.13725495
14.96460533;2.27450991
14.96868420;2.50980401
14.97284603;2.94117641
14.97284603;2.82352948
14.97693348;2.45098042
14.98112774;2.07843137
14.98509312;1.96078432
14.98509312;2.45098042
14.98927116;2.92156863
14.99337482;3.01960778
14.99743843;2.58823538
14.99743843;2.37254906
15.00139523;1.76470590
15.00556469;2.09803915
15.00962830;2.96078420
15.01366711;2.90196085
15.01777077;2.49019599
15.01777077;1.94117641
15.02198982;1.64705884
15.02606106;1.94117641
15.03024769;2.47058821
15.03024769;2.56862736
15.03422070;2.39215684
15.03832436;1.72549021
15.04248619;1.25490201
15.04248619;1.35294116
15.04663181;1.82352936
15.05075169;2.37254906
15.05471706;2.15686274
15.05885410;1.76470590
15.06300735;1.43137252
15.06300735;1.74509799
15.06716061;2.35294127
15.07115841;2.56862736
15.07523823;2.52941179
15.07523823;2.31372547
15.07937527;1.92156863
15.08346272;1.66666663
15.08746052;1.98039210
15.08746052;2.56862736
15.09160519;2.70588231
15.09564400;2.80392146
15.09980583;2.19607854
15.10381985;2.25490189
15.10812092;2.90196085
15.10812092;3.43137264
15.11212635;3.43137264
15.11624718;3.07843137
15.12035084;2.72549009
15.12035084;2.09803915
15.12430763;2.37254906
15.12840366;3.07843137
15.13258171;3.33333325
15.13258171;3.33333325
15.13668633;2.98039222
15.14064312;2.50980401
15.14477158;2.66666675
15.14896584;3.03921580
15.15315247;3.39215684
15.15315247;3.19607854
15.15712547;2.50980401
15.16122150;2.09803915
15.16534138;2.23529410
15.16534138;2.68627453
15.16958523;2.92156863
15.17362404;3.05882359
15.17761326;2.88235283
15.17761326;2.37254906
15.18180752;2.00000000
15.18591213;2.29411769
15.19003201;3.33333325
15.19414520;3.09803915
15.19808483;2.74509811
15.19808483;1.90196073
15.20224667;1.27450979
15.20634270;1.17647064
15.21040630;1.01960790
15.21040630;0.37254903
15.21442032;0.03921569
15.21862221;0.00000000
15.22275925;0.09803922
15.22275925;0.05882353
15.22676563;0.13725491
15.23083687;0.17647059
15.23510456;0.17647059
15.23510456;0.29411766
15.23911858;0.66666669
15.24321461;1.37254906
15.24321461;1.96078432
15.24726200;2.82352948
15.25130844;3.05882359
15.25545406;3.47058821
15.25545406;3.27450991
15.25958252;2.78431368
15.26366234;2.62745094
15.26767635;3.13725495
15.26767635;3.70588231
15.27178001;3.80392146
15.27592564;3.68627453
15.28002930;3.29411769
15.28002930;2.90196085
15.28406048;2.84313726
15.28822994;3.35294127
15.28822994;3.74509811
15.29238319;3.68627453
15.29650402;3.45098042
15.30064106;3.05882359
15.30064106;2.58823538
15.30462170;2.74509811
15.30873489;3.19607854
15.31283855;3.49019599
15.31283855;3.27450991
15.31682014;2.94117641
15.32103062;2.54901958
15.32509422;2.27450991
15.32509422;2.66666675
15.32916546;3.13725495
15.33337593;3.05882359
15.33337593;2.74509811
15.33732414;2.49019599
15.34149456;2.01960778
15.34555721;2.05882359
15.34555721;2.45098042
15.34975147;2.96078420
15.35370827;2.88235283
15.35787868;2.52941179
15.35787868;1.98039210
15.36199856;1.64705884
15.36612797;1.82352936
15.37017441;2.39215684
15.37017441;2.60784316
15.37421322;2.39215684
15.37829304;2.07843137
15.37829304;1.60784316
15.38241291;1.45098042
15.38654232;1.78431368
15.39071178;2.23529410
15.39071178;2.25490189
15.39465237;2.00000000
15.39878082;1.72549021
15.40290165;1.03921568
15.40290165;1.07843137
15.40707111;1.54901958
15.41110134;1.96078432
15.41522217;1.80392158
15.41522217;1.41176474
15.41935921;0.92156863
15.42351246;0.47058824
15.42749405;1.41176474
15.43159771;1.56862748
15.43571091;1.45098042
15.43571091;0.90196079
15.43980694;0.60784316
15.44384480;0.45098040
15.44801521;0.98039216
15.44801521;1.45098042
15.45203686;1.45098042
15.45614910;1.33333337
15.46028614;0.96078432
15.46028614;0.76470590
15.46427631;0.78431374
15.46842957;1.47058821
15.47263145;1.84313726
15.47675228;1.56862748
15.48088074;1.25490201
15.48088074;1.11764705
15.48487854;1.76470590
15.48900795;2.23529410
15.49311161;2.45098042
15.49311161;2.52941179
15.49705219;2.37254906
15.50119686;2.15686274
15.50526905;2.23529410
15.50526905;2.96078420
15.50950432;3.49019599
15.51354313;3.72549009
15.51753235;3.29411769
15.52166080;3.01960778
15.52582264;3.23529410
15.52582264;3.72549009
15.52993488;4.31372547
15.53412914;4.29411745
15.53811073;4.17647076
15.53811073;3.74509811
15.54224777;3.35294127
15.54637623;3.68627453
15.55051327;4.33333349
15.55051327;4.45098019
15.55447006;4.27450991
15.55857372;3.98039222
15.56271076;3.25490189
15.56679058;3.66666675
15.57098484;4.23529434
15.57098484;4.15686274
15.57503223;3.92156863
15.57904625;3.41176462
15.58314991;3.03921580
15.58314991;3.09803915
15.58718872;3.88235283
15.59127617;3.90196085
15.59542942;3.86274505
15.59542942;3.56862736
15.59960747;2.94117641
15.60372066;2.62745094
15.60774231;3.47058821
15.61187077;3.66666675
15.61600018;3.54901958
15.61600018;3.19607854
15.62007999;2.58823538
15.62408543;2.60784316
15.62817287;3.13725495
15.62817287;3.58823538
15.63233471;3.49019599
15.63648033;3.29411769
15.64059258;2.86274505
15.64059258;2.39215684
15.64464760;2.70588231
15.64886665;3.25490189
15.65297031;3.31372547
15.65698433;2.98039222
15.66101551;2.72549009
15.66101551;2.21568632
15.66501236;2.70588231
15.66917419;3.31372547
15.67337704;3.35294127
15.67337704;3.17647052
15.67736626;2.80392146
15.68146229;2.03921580
15.68555832;2.31372547
15.68555832;2.80392146
15.68965435;3.31372547
15.69383240;3.37254906
15.69776440;2.62745094
15.70209789;2.29411769
15.70603848;2.27450991
15.70603848;2.94117641
15.71013451;3.37254906
15.71418095;3.35294127
15.71833420;3.00000000
15.71833420;2.52941179
15.72248745;2.23529410
15.72661686;2.58823538
15.73073673;3.11764717
15.73073673;3.33333325
15.73471832;3.05882359
15.73880672;2.66666675
15.74297619;2.27450991
15.74297619;2.19607854
15.74711323;2.60784316
15.75114346;3.17647052
15.75114346;3.09803915
15.75520706;2.68627453
15.75940132;2.41176462
15.76348019;2.13725495
15.76348019;2.29411769
15.76745415;2.82352948
15.77157402;3.01960778
15.77576065;3.01960778
15.77576065;2.60784316
15.77977467;2.15686274
15.78388691;1.84313726
15.78802395;2.33333325
15.78802395;2.80392146
15.79204655;2.96078420
15.79624081;2.80392146
15.79624081;2.41176462
15.80033684;2.09803915
15.80433369;2.05882359
15.80846310;2.52941179
15.80846310;3.01960778
15.81255054;2.84313726
15.81663036;2.54901958
15.82084084;2.31372547
15.82084084;1.92156863
15.82478142;2.29411769
15.82896709;2.80392146
15.83303928;3.00000000
15.83303928;2.96078420
15.83714294;2.39215684
15.84114933;2.21568632
15.84114933;2.00000000
15.84532642;2.49019599
15.84948826;2.86274505
15.85352707;2.98039222
15.85352707;2.86274505
15.85759068;2.49019599
15.86171913;2.05882359
15.86585617;2.07843137
15.86585617;2.66666675
15.86988640;3.05882359
15.87411308;3.03921580
15.87814426;2.86274505
15.87814426;2.27450991
15.88223171;1.96078432
15.88631153;2.00000000
15.88631153;2.90196085
15.89046478;3.01960778
15.89442158;3.15686274
15.89859104;2.74509811
15.89859104;2.25490189
15.90262985;2.03921580
15.90675831;2.50980401
15.91094494;2.68627453
15.91094494;2.90196085
15.91499996;2.80392146
15.91908741;2.43137264
15.92323303;2.05882359
15.92323303;2.09803915
15.92723846;2.68627453
15.93135071;3.01960778
15.93544674;2.78431368
15.93960857;2.27450991
15.94368839;1.92156863
15.94368839;2.19607854
15.94763660;2.84313726
15.95178223;3.00000000
15.95589447;3.00000000
15.95589447;2.58823538
15.96001530;2.09803915
15.96404552;1.90196073
15.96816635;2.43137264
15.96816635;2.94117641
15.97236061;2.80392146
15.97648907;2.70588231
15.98060989;1.90196073
15.98458290;2.03921580
15.98867035;2.58823538
15.98867035;3.03921580
15.99292183;2.98039222
15.99700165;2.68627453
16.00114632;2.21568632
16.00114632;1.70588231
16.00514412;2.17647052
16.00923157;2.76470590
16.01335335;2.92156863
16.01335335;2.70588231
16.01731873;2.29411769
16.02142143;1.74509799
16.02560806;1.92156863
16.02965546;2.37254906
16.03376770;2.37254906
16.03376770;2.09803915
16.03781509;1.54901958
16.04209900;1.25490201
16.04609680;1.25490201
16.04609680;1.86274505
16.05022430;2.27450991
16.05423164;2.15686274
16.05831146;2.01960778
16.05831146;1.62745094
16.06243896;1.37254906
16.06651115;1.74509799
16.07067299;2.47058821
16.07462120;2.31372547
16.07875824;2.07843137
16.07875824;1.80392158
16.08289528;1.70588231
16.08703995;2.31372547
16.09116936;2.92156863
16.09116936;2.94117641
16.09521484;2.96078420
16.09935188;2.68627453
16.10339928;2.31372547
16.10339928;2.47058821
16.10747910;3.05882359
16.11158371;3.54901958
16.11571121;3.13725495
16.11979103;2.68627453
16.12395287;2.35294127
16.12395287;2.68627453
16.12803268;3.15686274
16.13204765;3.80392146
16.13619232;3.29411769
16.13619232;2.90196085
16.14028740;2.45098042
16.14426041;2.43137264
16.14839745;2.84313726
16.14839745;3.35294127
16.15250969;3.35294127
16.15667152;3.17647052
16.16086578;2.31372547
16.16483879;2.47058821
16.16912460;3.03921580
16.16912460;3.41176462
16.17311287;3.45098042
16.17724228;3.13725495
16.18124008;2.62745094
16.18124008;2.33333325
16.18531036;2.84313726
16.18944740;3.49019599
16.19360924;3.64705873
16.19360924;3.37254906
16.19755745;2.88235283
16.20163727;1.50980389
16.20577431;0.96078432
16.20989609;0.62745100
16.21401596;0.00000000
16.21401596;0.00000000
16.21807098;0.07843138
16.22216797;0.00000000
16.22632790;0.01960784
16.22632790;0.17647059
16.23050690;0.33333334
16.23447227;0.58823532
16.23867416;0.90196079
16.23867416;1.29411769
16.24272156;1.56862748
16.24684906;2.25490189
16.25094604;3.11764717
16.25094604;3.47058821
16.25501633;3.45098042
16.25907135;3.15686274
16.25907135;2.74509811
16.26323318;2.70588231
16.26728058;3.25490189
16.27127075;3.70588231
16.27127075;3.62745094
16.27544785;3.35294127
16.27952766;3.03921580
16.28370476;2.68627453
16.28370476;2.74509811
16.28771973;3.33333325
16.29184914;3.47058821
16.29599380;3.31372547
16.29599380;3.15686274
16.30011368;2.68627453
16.30423355;2.31372547
16.30423355;2.68627453
16.30820847;3.33333325
16.31231117;3.33333325
16.31640816;3.31372547
16.31640816;2.78431368
16.32053566;2.33333325
16.32451820;2.27450991
16.32864571;2.70588231
16.32864571;3.19607854
16.33275986;3.13725495
16.33689690;2.96078420
16.34101677;2.37254906
16.34101677;2.03921580
16.34503937;2.37254906
16.34923363;2.72549009
16.34923363;2.98039222
16.35331345;2.94117641
16.35749054;2.54901958
16.36149597;2.11764717
16.36149597;1.68627453
16.36560822;2.09803915
16.36968803;2.50980401
16.37381744;2.47058821
16.37381744;2.54901958
16.37777328;1.96078432
16.38210678;1.50980389
16.38617134;1.52941179
16.38617134;1.88235295
16.39025879;2.39215684
16.39432144;2.23529410
16.39432144;2.17647052
16.39833641;1.58823526
16.40244865;1.03921568
16.40670776;1.25490201
16.40670776;1.74509799
16.41065598;1.84313726
16.41468811;1.82352936
16.41877556;1.49019611
16.41877556;0.96078432
16.42292023;0.60784316
16.42713165;1.00000000
16.43120193;1.15686274
16.43120193;1.50980389
16.43519211;1.31372547
16.43932915;0.88235295
16.44343376;0.39215687
16.44754601;0.94117647
16.45155907;1.23529410
16.45155907;1.33333337
16.45567131;1.05882359
16.45981789;0.70588237
16.46395302;0.37254903
16.46395302;0.72549021
