0.00765991;3.2549
0.0138016;2.76471
0.0199432;2.7451
0.0260849;3.60784
0.0322266;2.72549
0.0383682;2.21569
0.0445099;3.21569
0.0506516;2.78431
0.0567932;2.09804
0.0629349;2.90196
0.0690765;3.15686
0.0752182;2.11765
0.0813599;2.7451
0.0875015;3.01961
0.0936432;2.31373
0.0998154;2.37255
0.106018;3.11765
0.112221;2.56863
0.118423;2
0.124626;2.96078
0.130829;2.84314
0.137032;2.05882
0.143234;2.72549
0.149437;3.01961
0.15564;2.37255
0.161842;2.39216
0.168045;3.01961
0.174248;2.54902
0.18045;2.15686
0.186653;3.01961
0.192856;2.76471
0.199059;2.05882
0.205261;2.78431
0.211464;2.88235
0.217667;2.17647
0.223869;2.19608
0.230072;2.72549
0.236275;2.31373
0.242477;1.56863
0.24868;2.47059
0.254883;2.09804
0.261086;1.27451
0.267288;2.11765
0.273491;2.4902
0.279694;1.80392
0.285896;2.52941
0.292099;2.5098
0.298302;2
0.304504;2.60784
0.310707;3.2549
0.31691;2.86275
0.323112;2.56863
0.329315;3.29412
0.335518;2.66667
0.341721;2.86275
0.347923;3.37255
0.354126;3.13725
0.360329;2.47059
0.366531;3.29412
0.372734;2.43137
0.378937;2.45098
0.385139;3.2549
0.391342;2.92157
0.397545;2.5098
0.403748;3.33333
0.40995;2.52941
0.416134;0.0196078
0.422318;0.0784314
0.428501;0.0196078
0.434685;0.0784314
0.440868;1.09804
0.447052;2.5098
0.453236;2.7451
0.459419;3.58824
0.465603;3.47059
0.471786;2.52941
0.47797;3.05882
0.484154;3.41176
0.490337;2.70588
0.496521;2.60784
0.502705;3.29412
0.508888;2.52941
0.515072;2.72549
0.521255;3.15686
0.527439;2.45098
0.533623;2.05882
0.539806;2.98039
0.54599;2
0.552174;2.01961
0.558357;2.43137
0.564541;2.29412
0.570724;1.52941
0.576908;2.52941
0.583092;2.21569
0.589275;1.35294
0.595459;1.7451
0.601643;1.94118
0.607826;1.31373
0.61401;1.11765
0.620193;1.43137
0.626377;0.941176
0.632561;0.490196
0.638744;1.37255
0.644928;0.960784
0.651112;0.156863
0.657295;0.784314
0.663479;1.11765
0.669662;0.54902
0.675846;0.686275
0.68203;1.58824
0.688213;1.31373
0.694397;1.15686
0.700581;2.66667
0.706764;2.82353
0.712948;2.41176
0.719131;3.37255
0.725311;4
0.731487;3.37255
0.737663;4.11765
0.743839;4.56863
0.750015;4.21569
0.756191;3.70588
0.762367;4.70588
0.768543;4.4902
0.774719;3.54902
0.780895;4.17647
0.787071;4.13725
0.793247;3.33333
0.799423;4.11765
0.805599;4.07843
0.811775;3.21569
0.817951;3.54902
0.824127;3.86275
0.830303;2.80392
0.836479;3.41176
0.842655;3.60784
0.848831;2.72549
0.855007;2.80392
0.861183;3.43137
0.867359;2.94118
0.873535;3.03922
0.879711;3.37255
0.885887;2.80392
0.892063;2.47059
0.898239;3.19608
0.904415;2.84314
0.910591;2.19608
0.916767;3.11765
0.922943;2.56863
0.929119;2.29412
0.935295;3.07843
0.941471;2.88235
0.947647;2.07843
0.953823;2.86275
0.959999;2.68627
0.966175;2.11765
0.972351;3.07843
0.978527;2.92157
0.984703;2.09804
0.990879;2.76471
0.997055;3.05882
1.00323;2.11765
1.00941;2.86275
1.01558;3.03922
1.02176;2.19608
1.02794;2.52941
1.03411;2.96078
1.04032;2.35294
1.04653;2.66667
1.05274;3.01961
1.05895;2.37255
1.06516;2.37255
1.07137;3.21569
1.07758;2.64706
1.08379;2.01961
1.09;3.03922
1.09621;2.78431
1.10242;1.94118
1.10863;2.60784
1.11485;2.86275
1.12106;2.2549
1.12727;2.07843
1.13348;2.90196
1.13969;2.47059
1.1459;2.01961
1.15211;2.84314
1.15832;2.64706
1.16453;1.80392
1.17074;2.80392
1.17695;2.78431
1.18316;2.11765
1.18937;2.39216
1.19558;2.92157
1.20179;2.64706
1.208;1.98039
1.21421;2.78431
1.22042;2.68627
1.22663;1.90196
1.23284;2.56863
1.23905;2.58824
1.24526;1.58824
1.25147;2.68627
1.25768;2.27451
1.26389;1.62745
1.2701;1.80392
1.27631;2.19608
1.28252;1.33333
1.28873;2.07843
1.29494;2.4902
1.30116;1.43137
1.30737;1.86275
1.31358;2.72549
1.31979;2.39216
1.326;2.80392
1.33221;3.19608
1.33842;2.64706
1.34463;2.56863
1.35083;3.56863
1.35701;2.88235
1.3632;2.2549
1.36939;3.35294
1.37558;2.82353
1.38176;2.2549
1.38795;3.2549
1.39414;2.92157
1.40033;2.19608
1.40651;2.98039
1.4127;2.90196
1.41889;2.2549
1.42508;2.01961
1.43126;0.607843
1.43745;0.0392157
1.44364;0.0784314
1.44983;0.0392157
1.45601;0.215686
1.4622;2.29412
1.46839;3.21569
1.47458;2.78431
1.48076;3.23529
1.48695;3.64706
1.49314;3.19608
1.49932;3.47059
1.50551;3.80392
1.5117;3.01961
1.51789;3.07843
1.52407;3.98039
1.53026;3.19608
1.53645;2.43137
1.54264;3.4902
1.54882;2.62745
1.55501;2.13725
1.5612;3.05882
1.56739;2.64706
1.57357;1.82353
1.57976;2.62745
1.58595;2.60784
1.59214;1.80392
1.59832;2
1.60451;2.29412
1.6107;1.70588
1.61689;1.35294
1.62307;2.15686
1.62926;1.62745
1.63545;0.901961
1.64164;1.70588
1.64782;1.68627
1.65401;0.647059
1.6602;1.07843
1.66642;1.41176
1.67263;0.764706
1.67885;0.627451
1.68507;1.78431
1.69129;1.23529
1.69751;0.745098
1.70372;1.84314
1.70994;2.07843
1.71616;1.66667
1.72238;2.37255
1.7286;3.15686
1.73481;2.94118
1.74103;3.76471
1.74725;4.05882
1.75347;3.64706
1.75969;3.58824
1.7659;4.60784
1.77212;4.09804
1.77834;3.60784
1.78456;4.45098
1.79078;4.01961
1.79699;3.45098
1.80321;4.15686
1.80943;3.86275
1.81565;3.15686
1.82187;3.96078
1.82808;3.37255
1.8343;2.92157
1.84052;3.84314
1.84674;3.58824
1.85295;2.76471
1.85917;3.47059
1.86539;3.54902
1.87161;2.54902
1.87783;3.45098
1.88404;3.41176
1.89026;2.54902
1.89648;3.05882
1.9027;3.43137
1.90892;2.7451
1.91513;3.27451
1.92135;3.31373
1.92757;2.60784
1.93379;3.01961
1.94001;3.41176
1.94622;2.88235
1.95244;2.37255
1.95866;3.17647
1.96488;2.60784
1.9711;2.5098
1.97731;3.23529
1.98355;2.7451
1.9898;2.09804
1.99604;3.17647
2.00228;2.64706
2.00852;2.33333
2.01476;3.13725
2.021;2.84314
2.02724;2.07843
2.03348;2.88235
2.03972;3.09804
2.04596;2.19608
2.0522;2.45098
2.05844;3.09804
2.06469;2.39216
2.07093;2.13725
2.07717;3.03922
2.08341;2.78431
2.08965;1.96078
2.09589;2.96078
2.10213;2.98039
2.10837;2.2549
2.11461;2.56863
2.12085;2.92157
2.12709;2.47059
2.13334;2.21569
2.13958;3.05882
2.14582;2.80392
2.15206;2.11765
2.1583;3.03922
2.16454;3.19608
2.17078;2.31373
2.17702;2.66667
2.18326;3.17647
2.1895;2.52941
2.19574;2.31373
2.20198;3.21569
2.20823;2.60784
2.21447;2.09804
2.22071;3.01961
2.22695;3.01961
2.23319;2.23529
2.23943;2.68627
2.24567;3
2.25191;2.15686
2.25815;2.86275
2.26439;2.88235
2.27063;2.21569
2.27687;2.43137
2.28312;3.19608
2.28936;2.13725
2.2956;2.43137
2.30177;2.68627
2.30795;1.84314
2.31413;1.60784
2.3203;2.45098
2.32648;2.17647
2.33265;1.82353
2.33883;2.64706
2.34501;2.29412
2.35118;1.96078
2.35736;3.11765
2.36353;3.07843
2.36971;2.39216
2.37589;3.29412
2.38206;2.92157
2.38824;2.29412
2.39441;3.09804
2.40059;3.09804
2.40676;2.23529
2.41294;2.80392
2.41912;2.84314
2.42529;2.07843
2.43147;2.94118
2.43764;3.05882
2.44382;2.39216
2.45;2.70588
2.45617;3.27451
2.46235;1.07843
2.46852;0.392157
2.4747;0
2.48088;0.0980392
2.48705;0.0588235
2.49323;0.509804
2.4994;1.33333
2.50558;2.62745
2.51176;3.47059
2.51793;2.7451
2.52411;2.31373
2.53028;3.2549
2.53646;2.96078
2.54264;2.29412
2.54881;2.96078
2.55499;3.13725
2.56116;2.21569
2.56734;2.47059
2.57352;3.09804
2.57969;2.45098
2.58587;1.98039
2.59204;2.78431
2.59822;2.60784
2.6044;1.66667
2.61059;2.56863
2.6168;2.56863
2.62301;1.58824
2.62922;1.98039
2.63543;2.31373
2.64164;1.80392
2.64785;1.43137
2.65406;2.15686
2.66027;1.70588
2.66648;0.901961
2.67269;1.70588
2.6789;1.60784
2.68511;0.705882
2.69132;0.862745
2.69753;1.15686
2.70374;0.627451
2.70996;0.392157
2.71617;1.05882
2.72238;0.784314
2.72859;0.313726
2.7348;1.09804
2.74101;1.31373
2.74722;0.921569
2.75343;2.13725
2.75964;2.45098
2.76585;2.07843
2.77206;3.13725
2.77827;3.76471
2.78448;3.29412
2.79069;4.2549
2.7969;4.35294
2.80311;3.82353
2.80932;4.27451
2.81553;4.64706
2.82174;4
2.82795;3.54902
2.83416;4.52941
2.84037;3.72549
2.84658;3.68627
2.85279;4.5098
2.859;3.64706
2.86521;3.05882
2.87142;3.90196
2.87763;3.39216
2.88384;3.09804
2.89005;3.78431
2.89627;3.43137
2.90248;2.68627
2.90869;3.52941
2.9149;3.47059
2.92111;2.58824
2.92733;3.68627
2.93356;3.21569
2.93978;2.27451
2.94601;2.94118
2.95223;3.2549
2.95846;2.43137
2.96469;3.31373
2.97091;3.15686
2.97714;2.80392
2.98336;2.96078
2.98959;3.37255
2.99581;2.66667
3.00204;2.58824
3.00826;3.43137
3.01449;3
3.02072;2.23529
3.02694;3.17647
3.03317;3.09804
3.03939;2.39216
3.04562;2.92157
3.05184;3.29412
3.05807;2.64706
3.06429;2.47059
3.07052;3.21569
3.07675;2.80392
3.08297;2.19608
3.0892;3.2549
3.09542;3.17647
3.10165;2.29412
3.10787;2.88235
3.1141;3.21569
3.12033;2.68627
3.12655;2.35294
3.13278;3.11765
3.139;2.82353
3.14523;2.33333
3.15145;3.2549
3.15768;2.98039
3.1639;2.09804
3.17013;2.92157
3.17636;3.17647
3.18258;2.5098
3.18881;2.37255
3.19503;3.03922
3.20126;2.56863
3.20748;2.52941
3.21371;2.86275
3.21993;2.45098
3.22616;2.19608
3.23239;3.11765
3.23861;2.64706
3.24474;1.78431
3.25086;2.94118
3.25699;2.39216
3.26312;1.96078
3.26924;3
3.27537;2.82353
3.2815;2
3.28762;2.62745
3.29375;2.43137
3.29988;1.54902
3.306;2.29412
3.31213;2.39216
3.31825;1.52941
3.32438;1.7451
3.33051;2.21569
3.33663;1.43137
3.34276;2.23529
3.34889;2.43137
3.35501;1.60784
3.36114;1.96078
3.36727;2.76471
3.37339;2.70588
3.37952;2.78431
3.38564;3.27451
3.39177;2.72549
3.3979;2.62745
3.40402;3.47059
3.41015;3.07843
3.41628;2.4902
3.4224;3.39216
3.42853;2.88235
3.43466;2.31373
3.44078;3.37255
3.44691;3.15686
3.45304;2.37255
3.45916;3.21569
3.46529;3.17647
3.47141;2.05882
3.47754;1.86275
3.48367;1.07843
3.48979;0
3.49592;0.0784314
3.50205;0.176471
3.50817;0.529412
3.5143;2.03922
3.52043;3.70588
3.52655;3.35294
3.53268;2.7451
3.53881;3.72549
3.54493;3.41176
3.55111;2.70588
3.55733;3.07843
3.56356;3.68627
3.56978;2.88235
3.57601;2.52941
3.58224;3.27451
3.58846;2.84314
3.59469;2.07843
3.60091;3
3.60714;2.86275
3.61336;1.84314
3.61959;2.5098
3.62581;2.62745
3.63204;1.98039
3.63827;1.88235
3.64449;2.43137
3.65072;1.94118
3.65694;1.33333
3.66317;2.15686
3.66939;2.05882
3.67562;1.15686
3.68184;1.5098
3.68807;1.72549
3.6943;0.941176
3.70052;0.784314
3.70675;1.07843
3.71297;0.313726
3.7192;0.607843
3.72542;0.745098
3.73165;0.156863
3.73787;0.333333
3.7441;1.03922
3.75033;0.176471
3.75655;0.54902
3.76278;1.54902
3.769;1.35294
3.77523;1.39216
3.78145;2.7451
3.78768;2.94118
3.79391;2.84314
3.80013;3.92157
3.80636;3.7451
3.81258;3.13725
3.81881;4.17647
3.82503;4.2549
3.83126;3.4902
3.83748;4.29412
3.84371;4.21569
3.84994;3.23529
3.85616;3.90196
3.86239;4.09804
3.86858;3.23529
3.87478;3.21569
3.88097;3.82353
3.88717;2.76471
3.89336;3.17647
3.89956;3.56863
3.90575;2.86275
3.91195;2.64706
3.91814;3.33333
3.92434;2.56863
3.93053;2.66667
3.93673;3.2549
3.94292;2.86275
3.94912;2.35294
3.95531;3.21569
3.96151;2.90196
3.9677;2.27451
3.9739;3.11765
3.98009;3.01961
3.98629;2.13725
3.99248;3
3.99868;2.96078
4.00487;2.15686
4.01107;2.68627
4.01726;3.21569
4.02346;2.54902
4.02965;2.54902
4.03585;3.21569
4.04204;2.88235
4.04824;2.29412
4.05443;3.17647
4.06063;3.13725
4.06682;2.11765
4.07302;2.82353
4.07921;3.19608
4.08541;2.62745
4.0916;2.56863
4.0978;3.35294
4.10399;2.90196
4.11019;2.37255
4.11638;3.09804
4.12258;3.17647
4.12877;2.37255
4.13497;2.88235
4.14116;3.29412
4.14736;2.64706
4.15355;2.66667
4.15975;3.31373
4.16595;2.72549
4.17214;2.21569
4.17831;3.23529
4.18444;2.98039
4.19058;2.15686
4.19672;2.78431
4.20286;3.09804
4.209;1.86275
4.21513;2.92157
4.22127;3.03922
4.22741;2.17647
4.23355;2.4902
4.23969;3.05882
4.24582;2.39216
4.25196;2.66667
4.2581;2.92157
4.26424;2.17647
4.27037;2.29412
4.27651;2.86275
4.28265;2.45098
4.28879;1.88235
4.29493;2.80392
4.30106;1.82353
4.3072;1.76471
4.31334;2.54902
4.31948;1.98039
4.32561;1.31373
4.33175;2.03922
4.33789;1.90196
4.34403;1.41176
4.35017;2.82353
4.3563;2.37255
4.36244;1.52941
4.36858;2.60784
4.37472;2.80392
4.38086;2.11765
4.38699;3.2549
4.39313;3.27451
4.39927;2.76471
4.40541;2.94118
4.41154;3.29412
4.41768;2.7451
4.42382;3.11765
4.42996;3.27451
4.4361;2.4902
4.44223;2.70588
4.44837;3.41176
4.45451;2.56863
4.46065;2.41176
4.46679;3.56863
4.47292;3.35294
4.47906;2.05882
4.4852;1.76471
4.49137;0.705882
4.49757;0
4.50377;0.0392157
4.50998;0.215686
4.51618;0.392157
4.52238;1.47059
4.52859;3.47059
4.53479;3.45098
4.54099;2.4902
4.54719;3.54902
4.5534;3.72549
4.5596;2.92157
4.5658;3.13725
4.572;3.96078
4.57821;3.03922
4.58441;2.82353
4.59061;3.78431
4.59682;3.33333
4.60302;2.27451
4.60922;3.2549
4.61542;3.17647
4.62163;2.43137
4.62783;2.64706
4.63403;3.17647
4.64023;2.43137
4.64644;2.21569
4.65264;2.84314
4.65884;2.56863
4.66504;1.84314
4.67125;2.4902
4.67745;1.82353
4.68365;1.13725
4.68986;1.96078
4.69606;1.66667
4.70226;0.705882
4.70846;1.35294
4.71467;1.03922
4.72087;0.294118
4.72707;1.03922
4.73327;1.01961
4.73948;0.27451
4.74568;0.72549
4.75188;1
4.75809;0.431373
4.76429;1.37255
4.77049;1.86275
4.77669;1.68627
4.7829;1.92157
4.7891;3.07843
4.7953;2.72549
4.8015;3.33333
4.80769;4.01961
4.81387;3.66667
4.82006;3.41176
4.82624;4.23529
4.83242;4.11765
4.83861;3.72549
4.84479;4.27451
4.85097;4.01961
4.85716;3.17647
4.86334;4.09804
4.86952;3.86275
4.87571;2.82353
4.88189;3.84314
4.88807;3.39216
4.89426;2.58824
4.90044;3.54902
4.90663;3.4902
4.91281;2.68627
4.91899;3.11765
4.92518;3.54902
4.93136;2.37255
4.93754;3.15686
4.94373;3.33333
4.94991;2.58824
4.95609;2.62745
4.96228;3.27451
4.96846;2.72549
4.97465;2.29412
4.98083;3.2549
4.98701;2.90196
4.9932;2.03922
4.99938;2.80392
5.00556;3.13725
5.01175;2.43137
5.01793;2.58824
5.02411;3.19608
5.0303;2.78431
5.03648;2.21569
5.04267;3.17647
5.04885;3
5.05503;2.13725
5.06122;3.03922
5.0674;3.17647
5.07358;2.37255
5.07977;2.62745
5.08595;3.23529
5.09213;2.76471
5.09832;2.2549
5.1045;3.13725
5.11069;2.94118
5.11687;2.13725
5.12301;3.01961
5.12916;3.05882
5.13531;2.27451
5.14145;2.64706
5.1476;3.07843
5.15374;2.52941
5.15989;2.35294
5.16603;3.21569
5.17218;2.4902
5.17832;2.45098
5.18447;3.17647
5.19061;2.72549
5.19676;2.13725
5.20291;3.05882
5.20905;2.52941
5.2152;2.21569
5.22134;3.09804
5.22749;2.70588
5.23363;2
5.23978;2.90196
5.24592;2.90196
5.25207;2.03922
5.25821;2.98039
5.26436;2.82353
5.27051;2.03922
5.27665;2.72549
5.2828;3
5.28894;2.07843
5.29509;2.80392
5.30123;2.82353
5.30738;2.09804
5.31352;2.39216
5.31967;2.84314
5.32582;2.07843
5.33196;1.78431
5.33811;2.39216
5.34425;1.52941
5.3504;1.54902
5.35654;2.31373
5.36269;1.86275
5.36883;1.5098
5.37498;2.29412
5.38112;1.90196
5.38727;2
5.39342;2.86275
5.39956;2.78431
5.40571;2.21569
5.41185;3.19608
5.418;3.13725
5.42414;2.47059
5.43029;3.35294
5.43654;2.92157
5.44279;2.35294
5.44903;3.13725
5.45528;3.37255
5.46153;2.54902
5.46778;2.64706
5.47403;3.21569
5.48028;2.76471
5.48652;2.47059
5.49277;3.41176
5.49902;2.62745
5.50527;0.470588
5.51152;0.0980392
5.51777;0.0196078
5.52402;0
5.53026;0.156863
5.53651;1.11765
5.54276;1.70588
5.54901;2.35294
5.55526;3.56863
5.56151;3.68627
5.56775;2.78431
5.574;3.56863
5.58025;3.7451
5.5865;2.96078
5.59275;3.54902
5.599;3.72549
5.60525;3.17647
5.61149;2.68627
5.61774;3.54902
5.62399;3.23529
5.63024;2.2549
5.63649;3
5.64274;3.21569
5.64898;2.23529
5.65523;2.45098
5.66148;2.98039
5.66773;1.66667
5.67398;2.23529
5.68023;2.72549
5.68648;1.68627
5.69272;1.7451
5.69897;2.2549
5.70522;1.72549
5.71147;1.47059
5.71772;1.78431
5.72397;1
5.73022;0.666667
5.73646;1.56863
5.74271;1
5.74892;0.215686
5.75508;1.11765
5.76125;0.686275
5.76741;0.372549
5.77358;1.41176
5.77974;1.09804
5.78591;0.745098
5.79207;1.82353
5.79823;2.33333
5.8044;1.94118
5.81056;3.19608
5.81673;3.62745
5.82289;3.19608
5.82906;3.68627
5.83522;4.33333
5.84139;3.52941
5.84755;4.33333
5.85372;4.56863
5.85988;3.78431
5.86604;3.68627
5.87221;4.37255
5.87837;3.88235
5.88454;3.78431
5.8907;4.15686
5.89687;3.39216
5.90303;3.15686
5.9092;3.88235
5.91536;3.39216
5.92153;3.03922
5.92769;3.60784
5.93386;3.52941
5.94002;2.98039
5.94618;3.15686
5.95235;3.39216
5.95851;2.78431
5.96468;2.60784
5.97084;3.4902
5.97701;3.07843
5.98317;2.39216
5.98934;3.17647
5.9955;3.27451
6.00167;2.45098
6.00783;3
6.01399;3.35294
6.02016;2.76471
6.02632;2.60784
6.03249;3.27451
6.03865;2.96078
6.04482;2.23529
6.05098;3.23529
6.05715;3.09804
6.06331;2.33333
6.06948;2.82353
6.07564;3.15686
6.0818;2.43137
6.08797;2.35294
6.09413;3.35294
6.1003;3.05882
6.10646;2.17647
6.11263;3.05882
6.11879;2.96078
6.12496;2.23529
6.13112;3.05882
6.13729;2.76471
6.14345;2.03922
6.14961;2.92157
6.15578;3.07843
6.16194;2.15686
6.16811;2.98039
6.17427;2.7451
6.18044;2.13725
6.1866;2.80392
6.19277;3.23529
6.19893;2.45098
6.2051;2.33333
6.21126;2.86275
6.21742;2.01961
6.22359;2.47059
6.22975;2.90196
6.23592;2.35294
6.24208;2.15686
6.24825;2.96078
6.25441;2.21569
6.26058;2.23529
6.26674;2.92157
6.27291;2.43137
6.27907;1.92157
6.28523;2.98039
6.2914;2.70588
6.29756;2.05882
6.30373;2.86275
6.30989;2.4902
6.31606;1.76471
6.32222;2.60784
6.32839;2.39216
6.33455;1.62745
6.34072;2.43137
6.34688;2.15686
6.35304;1.31373
6.35921;2.01961
6.36538;2.45098
6.37154;1.86275
6.37775;2
6.38396;2.54902
6.39017;1.82353
6.39638;2.80392
6.40259;3.27451
6.4088;2.80392
6.41501;2.78431
6.42122;3.56863
6.42743;3.33333
6.43364;2.68627
6.43985;3.5098
6.44606;3.54902
6.45227;2.76471
6.45848;3.13725
6.46469;3.58824
6.47091;2.64706
6.47712;2.80392
6.48333;3.52941
6.48954;3.17647
6.49575;2.64706
6.50196;3.39216
6.50817;2.45098
6.51438;0.568627
6.52059;0.0588235
6.5268;0.0392157
6.53301;0.0196078
6.53922;0.509804
6.54543;2.35294
6.55164;3.11765
6.55785;2.76471
6.56406;3.72549
6.57027;3.68627
6.57648;2.35294
6.58269;3
6.5889;3.17647
6.59511;2.76471
6.60132;2.54902
6.60753;3.05882
6.61374;2.72549
6.61995;2.11765
6.62616;3
6.63237;2.47059
6.63858;1.94118
6.64479;2.88235
6.651;2.37255
6.65722;1.60784
6.66343;2.41176
6.66964;1.98039
6.67585;1.41176
6.68206;2.29412
6.68827;2
6.69442;1.07843
6.70058;1.70588
6.70674;2.03922
6.71289;0.803922
6.71905;1.54902
6.72521;1.4902
6.73137;0.862745
6.73752;0.764706
6.74368;1.47059
6.74984;0.45098
6.75599;0.843137
6.76215;0.980392
6.76831;0.431373
6.77446;0.72549
6.78062;1.54902
6.78678;1.4902
6.79293;1.21569
6.79909;2.90196
6.80525;2.70588
6.81141;2.84314
6.81756;4.01961
6.82372;3.92157
6.82988;3.84314
6.83603;4.29412
6.84219;4.29412
6.84835;3.78431
6.8545;4.70588
6.86066;4.52941
6.86682;3.47059
6.87297;4.2549
6.87913;4.45098
6.88529;3.35294
6.89145;4.11765
6.8976;4.01961
6.90376;3.09804
6.90992;3.45098
6.91607;3.62745
6.92223;3.2549
6.92839;2.98039
6.93454;3.56863
6.9407;3.11765
6.94686;2.33333
6.95301;3.23529
6.95917;3.29412
6.96533;2.41176
6.97149;2.90196
6.97764;3.2549
6.9838;2.58824
6.98996;2.33333
6.99611;3.17647
7.00229;2.78431
7.0085;2.11765
7.0147;3.05882
7.0209;2.96078
7.0271;2.15686
7.03331;2.68627
7.03951;3.11765
7.04571;2.70588
7.05191;2.43137
7.05812;3.13725
7.06432;2.88235
7.07052;2.31373
7.07673;3.2549
7.08293;3.23529
7.08913;2.45098
7.09533;2.84314
7.10154;3.56863
7.10774;2.56863
7.11394;2.54902
7.12014;3.27451
7.12635;2.4902
7.13255;2.60784
7.13875;3.19608
7.14495;2.62745
7.15116;2.60784
7.15736;3.07843
7.16356;3
7.16977;2.54902
7.17597;3.31373
7.18217;2.88235
7.18837;2.29412
7.19458;3.15686
7.20078;2.96078
7.20698;2.19608
7.21318;3.05882
7.21939;2.76471
7.22559;2.05882
7.23179;2.86275
7.238;2.96078
7.2442;2.43137
7.2504;2.29412
7.2566;2.45098
7.26281;1.56863
7.26901;2.05882
7.27521;2.35294
7.28141;1.45098
7.28762;1.45098
7.29382;2.13725
7.30002;1.45098
7.30622;2.03922
7.31243;2.45098
7.31865;1.98039
7.32488;1.7451
7.3311;2.82353
7.33733;2.68627
7.34356;2.64706
7.34978;3.37255
7.35601;2.90196
7.36223;2.54902
7.36846;3.43137
7.37468;3.19608
7.38091;2.43137
7.38713;3.45098
7.39336;3.17647
7.39959;2.35294
7.40581;3.31373
7.41204;3.56863
7.41826;2.54902
7.42449;3.2549
7.43071;3.21569
7.43694;1.86275
7.44316;0.568627
7.44939;0.196078
7.45562;0
7.46184;0.0392157
7.46807;1
7.47429;1.92157
7.48052;2.41176
7.48674;3.29412
7.49297;3.54902
7.4992;2.96078
7.50542;2.68627
7.51165;3.54902
7.51787;3.27451
7.5241;2.39216
7.53032;3.33333
7.53655;3.35294
7.54277;2.29412
7.549;2.90196
7.55523;3.21569
7.56145;2.31373
7.56768;2.37255
7.5739;3
7.58013;2.47059
7.58635;1.78431
7.59258;2.86275
7.5988;2.4902
7.60503;1.76471
7.61126;2.23529
7.61748;2.5098
7.62371;1.70588
7.6299;1.96078
7.63605;2.03922
7.64221;1.09804
7.64837;1.41176
7.65453;1.78431
7.66068;0.960784
7.66684;0.647059
7.673;1.2549
7.67915;0.607843
7.68531;0.666667
7.69147;1.35294
7.69762;0.843137
7.70378;0.588235
7.70994;1.5098
7.71609;1.27451
7.72225;1.35294
7.72841;2.70588
7.73457;2.7451
7.74072;2.47059
7.74688;3.72549
7.75304;4.15686
7.75919;3.52941
7.76535;4.7451
7.77151;4.62745
7.77766;3.86275
7.78382;4.43137
7.78998;4.66667
7.79613;4.01961
7.80229;4.41176
7.80845;4.43137
7.81461;3.43137
7.82076;3.84314
7.82692;4.2549
7.83308;3.58824
7.83923;3.27451
7.84539;3.96078
7.85155;3.11765
7.8577;3.19608
7.86386;3.92157
7.87002;3.29412
7.87617;2.76471
7.88233;3.60784
7.88849;3.68627
7.89465;2.78431
7.9008;3.47059
7.90696;3.45098
7.91312;2.7451
7.91927;3.01961
7.92543;3.56863
7.93159;3.01961
7.93774;2.66667
7.94395;3.54902
7.95015;3.13725
7.95635;2.23529
7.96255;3.31373
7.96876;3.47059
7.97496;2.76471
7.98116;2.94118
7.98737;3.52941
7.99357;2.98039
7.99977;2.62745
8.00597;3.58824
8.01218;3.17647
8.01838;2.56863
8.02458;3.39216
8.03078;3.33333
8.03699;2.94118
8.04319;2.88235
8.04939;3.2549
8.0556;2.78431
8.0618;2.4902
8.068;3.09804
8.0742;2.92157
8.08041;2.27451
8.08661;3
8.09281;2.82353
8.09901;2.27451
8.10522;3.31373
8.11142;3.01961
8.11762;2.23529
8.12383;2.70588
8.13003;2.88235
8.13623;2.21569
8.14243;3.01961
8.14864;3.05882
8.15484;2.2549
8.16104;2.64706
8.16724;3.29412
8.17345;2.15686
8.17965;2.94118
8.18585;3.15686
8.19205;2.23529
8.19826;2.11765
8.20446;2.37255
8.21066;2.11765
8.21687;2.23529
8.22307;2.66667
8.22927;2.2549
8.23547;2.01961
8.24168;2.90196
8.24788;2.78431
8.25407;2.2549
8.26025;3.4902
8.26643;3.05882
8.27261;2.60784
8.27879;3.31373
8.28497;3.2549
8.29115;2.13725
8.29733;3.07843
8.30351;3
8.30969;2.31373
8.31587;3.13725
8.32205;3.23529
8.32823;2.31373
8.33441;2.92157
8.34059;3.60784
8.34677;1.84314
8.35295;1.60784
8.35913;0.568627
8.36531;0
8.37149;0.0196078
8.37767;0
8.38385;0.235294
8.39003;1.31373
8.39621;3.19608
8.40239;3.41176
8.40857;2.7451
8.41475;3.5098
8.42093;3.54902
8.4271;2.94118
8.43328;3.13725
8.43946;3.7451
8.44564;3.29412
8.45182;2.78431
8.458;3.43137
8.46418;3.09804
8.47036;2.27451
8.47654;3.33333
8.48272;3.19608
8.4889;2.39216
8.49508;2.47059
8.50126;2.92157
8.50744;2.35294
8.51362;1.94118
8.5198;2.70588
8.52598;2.2549
8.53216;1.41176
8.53834;2.15686
8.54452;1.96078
8.5507;1.2549
8.55688;1.4902
8.56306;1.94118
8.56919;1.13725
8.57533;0.823529
8.58146;1.56863
8.5876;0.568627
8.59373;0.529412
8.59986;1.27451
8.606;0.764706
8.61213;0.313726
8.61827;1.2549
8.6244;1.35294
8.63054;1.05882
8.63667;2.27451
8.6428;2.31373
8.64894;1.92157
8.65507;3.33333
8.66121;3.72549
8.66734;3.31373
8.67347;4.62745
8.67961;4.56863
8.68574;3.90196
8.69188;4.88235
8.69801;4.78431
8.70414;4.43137
8.71028;4.13725
8.71641;4.47059
8.72255;3.66667
8.72868;4.01961
8.73481;4.41176
8.74095;3.64706
8.74708;3.41176
8.75322;4.07843
8.75935;3.21569
8.76548;3.27451
8.77162;3.84314
8.77775;3.29412
8.78389;2.82353
8.79002;3.60784
8.79615;3.39216
8.80229;2.64706
8.80842;3.66667
8.81456;2.84314
8.82069;2.15686
8.82682;3.09804
8.83296;2.98039
8.83909;2.11765
8.84523;3.15686
8.85136;2.82353
8.85749;2.07843
8.86363;2.80392
8.86976;3.07843
8.8759;2.19608
8.88214;2.56863
8.88838;2.82353
8.89462;2.68627
8.90086;2.27451
8.9071;3.21569
8.91334;2.94118
8.91958;2.15686
8.92582;3.05882
8.93206;3.19608
8.9383;2.37255
8.94455;2.7451
8.95079;3.23529
8.95703;2.82353
8.96327;2.39216
8.96951;3.41176
8.97575;3.01961
8.98199;2.29412
8.98823;3.09804
8.99447;3.13725
9.00071;2.39216
9.00695;2.70588
9.0132;3.2549
9.01944;2.47059
9.02568;2.27451
9.03192;2.98039
9.03816;2.39216
9.0444;2.33333
9.05064;3
9.05688;2.88235
9.06312;2.35294
9.06936;3.11765
9.0756;2.62745
9.08184;1.62745
9.08809;2.31373
9.09433;1.84314
9.10057;1.29412
9.10681;2.31373
9.11305;2.58824
9.11929;1.72549
9.12553;2.68627
9.13177;2.72549
9.13801;2.4902
9.14425;2.96078
9.15049;3.2549
9.15673;2.52941
9.16298;2.64706
9.16922;3.21569
9.17546;2.19608
9.1817;2.70588
9.18794;3.13725
9.19416;2.4902
9.20036;2.31373
9.20657;3.2549
9.21277;2.33333
9.21897;2.5098
9.22517;3.31373
9.23138;2.45098
9.23758;1.19608
9.24378;1.01961
9.24998;0
9.25619;0.0196078
9.26239;0.0196078
9.26859;0.176471
9.2748;0.823529
9.281;2.68627
9.2872;3.09804
9.2934;2.43137
9.29961;3.43137
9.30581;3.29412
9.31201;2.54902
9.31821;3.33333
9.32442;3.68627
9.33062;2.7451
9.33682;2.76471
9.34303;3.39216
9.34923;2.70588
9.35543;2.41176
9.36163;3.19608
9.36784;2.82353
9.37404;2.29412
9.38024;2.72549
9.38644;2.80392
9.39265;2
9.39885;2.27451
9.40505;2.78431
9.41125;2.13725
9.41746;1.56863
9.42366;2.19608
9.42986;2
9.43607;1
9.44227;1.7451
9.44847;1.68627
9.45467;0.862745
9.46088;1.13725
9.46708;1.58824
9.47328;0.823529
9.47948;0.431373
9.48569;1.23529
9.49189;0.921569
9.49809;0.294118
9.5043;1.21569
9.51048;1.37255
9.51663;0.882353
9.52279;1.47059
9.52895;2.39216
9.5351;1.90196
9.54126;3
9.54742;3.64706
9.55357;3.29412
9.55973;3.56863
9.56589;4.41176
9.57204;4.15686
9.5782;3.66667
9.58436;4.54902
9.59052;4.11765
9.59667;3.72549
9.60283;4.5098
9.60899;4.11765
9.61514;3.07843
9.6213;4.13725
9.62746;3.72549
9.63361;3.07843
9.63977;4.05882
9.64593;3.80392
9.65208;3.03922
9.65824;3.56863
9.6644;3.68627
9.67056;2.76471
9.67671;3.43137
9.68287;3.5098
9.68903;2.66667
9.69518;2.94118
9.70134;3.5098
9.7075;2.72549
9.71365;3.13725
9.71981;3.19608
9.72597;2.35294
9.73212;2.58824
9.73828;3.19608
9.74444;2.62745
9.7506;2.21569
9.75675;3.03922
9.76291;2.47059
9.76907;2.41176
9.77522;3.13725
9.78138;2.72549
9.78754;2.2549
9.79369;3.13725
9.79985;2.68627
9.80601;2.31373
9.81216;3.21569
9.81832;3.01961
9.82452;2.11765
9.83077;3.05882
9.83702;3.11765
9.84327;2.35294
9.84952;2.64706
9.85577;3.09804
9.86201;2.62745
9.86826;2.37255
9.87451;3.17647
9.88076;2.92157
9.88701;2.07843
9.89326;2.94118
9.89951;3.13725
9.90575;2.27451
9.912;2.54902
9.91825;3.23529
9.9245;2.58824
9.93075;2.19608
9.937;3.13725
9.94324;2.80392
9.94949;2.11765
9.95574;2.84314
9.96199;2.98039
9.96824;2.21569
9.97449;2.56863
9.98074;3.07843
9.98698;2.37255
9.99323;1.92157
9.99948;2.54902
10.0057;2.05882
10.012;1.21569
10.0182;2.2549
10.0245;2.39216
10.0307;1.7451
10.037;2.21569
10.0432;2.52941
10.0495;1.98039
10.0557;2.86275
10.062;3.33333
10.0682;2.58824
10.0745;2.86275
10.0807;3.37255
10.087;2.35294
10.0932;2.92157
10.0995;3.2549
10.1057;2.64706
10.112;2.5098
10.1182;3.41176
10.1245;2.86275
10.1307;2.54902
10.1369;3.23529
10.1432;3.03922
10.1493;2.35294
10.1555;2.56863
10.1617;1.31373
10.1679;0.0588235
10.1741;0
10.1802;0
10.1864;0.196078
10.1926;1.98039
10.1988;3.01961
10.205;2.66667
10.2111;3.27451
10.2173;3.37255
10.2235;2.60784
10.2297;3.29412
10.2359;3.54902
10.242;2.82353
10.2482;2.88235
10.2544;3.13725
10.2606;2.19608
10.2668;2.82353
10.2729;3.19608
10.2791;2.23529
10.2853;2.2549
10.2915;2.96078
10.2977;2.4902
10.3038;2.17647
10.31;2.66667
10.3162;2
10.3224;1.52941
10.3286;2.29412
10.3347;1.90196
10.3409;1.05882
10.3471;1.68627
10.3533;1.82353
10.3595;0.803922
10.3656;1
10.3718;1.37255
10.378;0.72549
10.3842;0.372549
10.3904;1.05882
10.3965;0.568627
10.4027;0.117647
10.4089;0.941176
10.4151;0.960784
10.4213;0.313726
10.4274;0.980392
10.4336;1.7451
10.4398;1.47059
10.446;1.66667
10.4522;2.86275
10.4583;3.09804
10.4645;2.62745
10.4707;3.88235
10.4768;4.13725
10.483;3.5098
10.4892;3.96078
10.4954;4.66667
10.5015;3.60784
10.5077;4.31373
10.5139;4.70588
10.52;3.72549
10.5262;3.82353
10.5324;4.39216
10.5386;3.84314
10.5447;3.64706
10.5509;4.09804
10.5571;3.39216
10.5633;3.03922
10.5694;3.82353
10.5756;3.39216
10.5818;2.70588
10.5879;3.41176
10.5941;3.13725
10.6003;2.52941
10.6065;3.37255
10.6126;3.17647
10.6188;2.47059
10.625;3.09804
10.6311;2.96078
10.6373;2.29412
10.6435;3.29412
10.6497;3.15686
10.6558;2.31373
10.662;2.86275
10.6682;3.17647
10.6744;2.17647
10.6805;2.7451
10.6867;3.54902
10.6929;2.4902
10.699;2.80392
10.7052;3.19608
10.7114;2.68627
10.7176;2.82353
10.7237;3.33333
10.7299;2.56863
10.7361;2.43137
10.7422;3.23529
10.7484;2.62745
10.7546;2.05882
10.7608;3.19608
10.7669;2.54902
10.7732;2.05882
10.7794;3.01961
10.7857;2.84314
10.792;2.03922
10.7982;2.88235
10.8045;2.96078
10.8107;2.21569
10.817;2.5098
10.8232;2.98039
10.8295;2.43137
10.8358;2.09804
10.842;2.96078
10.8483;2.66667
10.8545;2.01961
10.8608;2.88235
10.867;2.98039
10.8733;2.09804
10.8795;2.60784
10.8858;3
10.8921;2.29412
10.8983;2.15686
10.9046;3
10.9108;2.68627
10.9171;1.58824
10.9233;2.66667
10.9296;2.72549
10.9358;1.29412
10.9421;1.86275
10.9484;2.4902
10.9546;1.94118
10.9609;1.64706
10.9671;2.64706
10.9734;2.35294
10.9796;1.78431
10.9859;2.88235
10.9922;3.09804
10.9984;2.45098
11.0047;3.31373
11.0109;3.37255
11.0172;2.27451
11.0234;2.98039
11.0297;3.58824
11.0359;2.60784
11.0422;2.64706
11.0485;3.09804
11.0547;2.39216
11.061;2.84314
11.0672;3.13725
11.0735;2.45098
11.0797;2.43137
11.086;3.33333
11.0921;1.92157
11.0983;0.980392
11.1045;0.45098
11.1106;0.0392157
11.1168;0.0588235
11.123;0.490196
11.1292;1.2549
11.1353;2.66667
11.1415;3.72549
11.1477;3.17647
11.1538;2.4902
11.16;3.35294
11.1662;3.07843
11.1724;2.17647
11.1785;3.2549
11.1847;2.94118
11.1909;2.09804
11.1971;3
11.2032;3.17647
11.2094;2.19608
11.2156;2.47059
11.2217;2.76471
11.2279;1.94118
11.2341;2.35294
11.2403;2.7451
11.2464;1.84314
11.2526;1.72549
11.2588;2.37255
11.2649;1.4902
11.2711;1.72549
11.2773;2.09804
11.2835;1.39216
11.2896;0.941176
11.2958;1.56863
11.302;1.07843
11.3082;0.294118
11.3143;0.921569
11.3205;0.843137
11.3267;0.196078
11.3328;0.411765
11.339;1.13725
11.3452;0.215686
11.3514;0.176471
11.3575;1.11765
11.3637;0.960784
11.3699;0.470588
11.376;1.80392
11.3822;2.11765
11.3884;1.7451
11.3946;2.80392
11.4008;3.45098
11.407;3.35294
11.4132;3.45098
11.4194;4.43137
11.4256;4.15686
11.4318;3.64706
11.438;4.5098
11.4442;4.58824
11.4505;3.62745
11.4567;4.03922
11.4629;4.43137
11.4691;3.68627
11.4753;3.5098
11.4815;4.21569
11.4877;3.78431
11.4939;2.86275
11.5001;3.80392
11.5063;3.39216
11.5126;2.80392
11.5188;3.68627
11.525;3.33333
11.5312;2.27451
11.5374;3.13725
11.5436;3.2549
11.5498;2.23529
11.556;3.31373
11.5622;3.07843
11.5685;2.05882
11.5747;2.76471
11.5809;3.01961
11.5871;2.39216
11.5933;2.72549
11.5995;3
11.6057;2.09804
11.6119;2.39216
11.6181;3.01961
11.6243;2.5098
11.6306;2.17647
11.6368;3.11765
11.643;2.41176
11.6492;2.21569
11.6554;2.94118
11.6616;2.72549
11.6678;2.11765
11.674;3.11765
11.6802;2.56863
11.6864;2.11765
11.6927;3.07843
11.6989;2.78431
11.7051;2.11765
11.7113;2.80392
11.7175;2.96078
11.7237;2.03922
11.7299;3.17647
11.7361;2.92157
11.7423;2.19608
11.7485;2.80392
11.7547;3.07843
11.7608;2.41176
11.767;2.94118
11.7732;3.11765
11.7794;2.23529
11.7856;2.4902
11.7918;3.03922
11.798;2.47059
11.8042;2.23529
11.8104;3.11765
11.8166;2.70588
11.8228;2.05882
11.829;2.90196
11.8352;2.98039
11.8414;2.2549
11.8476;2.58824
11.8538;3.07843
11.86;2.41176
11.8662;2.15686
11.8724;2.90196
11.8786;2.4902
11.8848;1.94118
11.8909;2.68627
11.8971;2.29412
11.9033;1.41176
11.9095;1.82353
11.9157;2.47059
11.9219;1.94118
11.9281;1.70588
11.9343;2.5098
11.9405;2.33333
11.9467;1.96078
11.9529;3.17647
11.9591;2.92157
11.9653;2.56863
11.9715;3.41176
11.9777;3.07843
11.9839;2.21569
11.9901;3.07843
11.9963;3.35294
12.0025;2.2549
12.0087;3.17647
12.0148;3.23529
12.021;2.21569
12.0272;2.70588
12.0334;3.19608
12.0396;2.58824
12.0458;3.11765
12.0519;2.72549
12.0581;0.882353
12.0643;0.176471
12.0705;0
12.0767;0.0588235
12.0828;0.117647
12.089;1.58824
12.0952;2.37255
12.1014;2.70588
12.1076;3.4902
12.1137;3.01961
12.1199;2.43137
12.1261;3.27451
12.1323;2.82353
12.1385;2.29412
12.1446;3.23529
12.1508;2.64706
12.157;2.07843
12.1632;2.84314
12.1694;2.88235
12.1755;2
12.1817;2.70588
12.1879;2.78431
12.1941;1.88235
12.2003;2.39216
12.2064;2.52941
12.2126;1.86275
12.2188;2.01961
12.225;2.37255
12.2312;1.5098
12.2373;1.56863
12.2435;2.09804
12.2497;1.29412
12.2559;0.980392
12.2621;1.66667
12.2682;0.72549
12.2744;0.607843
12.2806;1.31373
12.2868;0.823529
12.293;0.294118
12.2991;1.09804
12.3053;0.921569
12.3115;0.215686
12.3177;1
12.3239;1.5098
12.33;1.09804
12.3362;1.35294
12.3425;2.92157
12.3487;2.45098
12.355;2.43137
12.3612;3.62745
12.3675;3.76471
12.3738;3.39216
12.38;4.07843
12.3863;4.56863
12.3925;3.72549
12.3988;3.90196
12.405;4.56863
12.4113;4.31373
12.4175;3.58824
12.4238;4.35294
12.4301;4.31373
12.4363;3.2549
12.4426;3.92157
12.4488;4.05882
12.4551;3.35294
12.4613;4.05882
12.4676;3.80392
12.4739;2.84314
12.4801;3.35294
12.4864;3.52941
12.4926;2.88235
12.4989;2.78431
12.5051;3.45098
12.5114;2.5098
12.5176;2.78431
12.5239;3.43137
12.5302;2.7451
12.5364;2.35294
12.5427;3.17647
12.5489;2.58824
12.5552;2.27451
12.5614;3.43137
12.5677;2.7451
12.574;2.01961
12.5802;2.94118
12.5865;2.98039
12.5927;2.15686
12.599;3.21569
12.6052;2.92157
12.6115;2.13725
12.6177;2.96078
12.624;3.03922
12.6303;2.15686
12.6365;3
12.6428;2.90196
12.649;2.07843
12.6553;2.45098
12.6615;3.03922
12.6677;2.39216
12.6739;2.33333
12.6802;2.90196
12.6864;2.05882
12.6926;2.43137
12.6988;2.90196
12.705;2.41176
12.7112;2.03922
12.7175;3.19608
12.7237;2.15686
12.7299;2.17647
12.7361;2.92157
12.7423;2.41176
12.7486;1.98039
12.7548;2.80392
12.761;2.60784
12.7672;1.90196
12.7734;2.52941
12.7796;3
12.7859;2.05882
12.7921;1.96078
12.7983;2.7451
12.8045;2.39216
12.8107;1.76471
12.8169;2.72549
12.8232;2.52941
12.8294;1.78431
12.8356;2.5098
12.8418;2.72549
12.848;1.7451
12.8543;2.01961
12.8605;2.60784
12.8667;1.82353
12.8729;1.29412
12.8791;2
12.8853;1.66667
12.8916;1.03922
12.8978;1.92157
12.904;2.15686
12.9102;1.62745
12.9164;1.86275
12.9227;2.4902
12.9289;2.37255
12.9351;2.03922
12.9413;3.2549
12.9475;2.80392
12.9537;2.09804
12.96;2.98039
12.9662;2.84314
12.9724;2.09804
12.9786;3.11765
12.9847;3.03922
12.9909;1.96078
12.9971;2.64706
13.0032;2.98039
13.0094;2.03922
13.0155;2.92157
13.0217;3.11765
13.0279;2.52941
13.034;2.15686
13.0402;1.72549
13.0464;0
13.0525;0.0392157
13.0587;0.0392157
13.0649;0
13.071;0.882353
13.0772;2.84314
13.0834;2.90196
13.0895;2.54902
13.0957;3.5098
13.1019;2.96078
13.108;2.68627
13.1142;3.56863
13.1203;3.21569
13.1265;2.5098
13.1327;3.35294
13.1388;3
13.145;2.45098
13.1512;3.35294
13.1573;3.13725
13.1635;2.29412
13.1697;2.86275
13.1758;3.05882
13.182;1.98039
13.1882;2.72549
13.1943;2.54902
13.2005;1.76471
13.2066;2.19608
13.2128;2.54902
13.219;1.64706
13.2251;2
13.2313;2.35294
13.2375;1.43137
13.2436;1.07843
13.2498;1.70588
13.256;0.980392
13.2621;0.54902
13.2683;1.31373
13.2745;1.03922
13.2806;0.215686
13.2868;0.980392
13.2931;1.17647
13.2993;0.72549
13.3056;1
13.3118;1.80392
13.3181;1.60784
13.3243;1.54902
13.3306;2.68627
13.3368;2.98039
13.3431;2.56863
13.3493;3.58824
13.3556;4.17647
13.3618;3.62745
13.3681;3.90196
13.3743;4.62745
13.3806;4.15686
13.3868;3.76471
13.3931;4.62745
13.3993;4.35294
13.4056;3.52941
13.4118;4.21569
13.418;4.35294
13.4243;3.43137
13.4305;3.47059
13.4368;4.03922
13.443;3.41176
13.4493;3
13.4555;3.76471
13.4618;3.45098
13.468;2.90196
13.4743;3.7451
13.4805;3.29412
13.4868;2.68627
13.493;3.4902
13.4993;3.33333
13.5055;2.62745
13.5118;3.35294
13.518;3.15686
13.5243;2.29412
13.5305;3.2549
13.5368;3.29412
13.543;2.43137
13.5493;2.80392
13.5555;3.19608
13.5618;2.23529
13.568;3.05882
13.5743;3.45098
13.5805;2.64706
13.5868;2.70588
13.593;3.35294
13.5993;2.54902
13.6055;2.86275
13.6117;3.37255
13.6179;2.76471
13.6241;2.5098
13.6303;3.2549
13.6365;3.21569
13.6427;2.62745
13.6489;3.2549
13.6551;2.80392
13.6613;2.2549
13.6675;3.19608
13.6737;3
13.6799;2.07843
13.6861;3.2549
13.6923;2.80392
13.6985;2.15686
13.7047;2.92157
13.7109;2.98039
13.7171;2.13725
13.7233;2.4902
13.7295;3.19608
13.7357;2.52941
13.7419;2.35294
13.7481;3.13725
13.7543;2.76471
13.7605;2.01961
13.7667;3
13.7729;3.13725
13.7791;2.09804
13.7853;2.58824
13.7915;3.07843
13.7977;2.39216
13.8039;2.27451
13.8101;3.11765
13.8163;2.66667
13.8226;2.09804
13.8288;2.96078
13.835;3.17647
13.8412;2.05882
13.8474;2.52941
13.8536;3
13.8598;2.2549
13.866;2.19608
13.8722;2.7451
13.8784;2.27451
13.8846;1.2549
13.8908;2.15686
13.897;2.15686
13.9032;1.82353
13.9094;2.09804
13.9156;2.4902
13.9217;1.90196
13.9278;2.5098
13.9339;2.96078
13.94;2.2549
13.9461;2.60784
13.9523;3.05882
13.9584;2.70588
13.9645;2.19608
13.9706;3.2549
13.9767;2.52941
13.9828;2.41176
13.9889;3.07843
13.995;2.56863
14.0011;2.11765
14.0073;3.07843
14.0134;2.23529
14.0195;1.96078
14.0256;3.27451
14.0317;2.80392
14.0378;1.78431
14.0439;1.72549
14.05;0.372549
14.0561;0
14.0623;0.117647
14.0684;0.0392157
14.0745;0.352941
14.0806;2.11765
14.0867;3.03922
14.0928;2.76471
14.0989;3.33333
14.105;3.35294
14.1111;2.70588
14.1173;3.05882
14.1234;3.5098
14.1295;2.90196
14.1356;2.5098
14.1417;3.31373
14.1478;2.4902
14.1539;2.4902
14.16;2.86275
14.1661;2.56863
14.1723;2.07843
14.1784;2.90196
14.1845;2.11765
14.1906;1.98039
14.1967;2.94118
14.2028;2.21569
14.2089;1.54902
14.215;2.45098
14.2211;2.27451
14.2273;1.31373
14.2335;1.72549
14.2397;2
14.2459;1.31373
14.2522;1.05882
14.2584;1.62745
14.2646;1.19608
14.2708;0.470588
14.2771;1.19608
14.2833;1.15686
14.2895;0.431373
14.2957;0.941176
14.302;1.27451
14.3082;0.823529
14.3144;0.941176
14.3206;1.72549
14.3269;1.64706
14.3331;1.62745
14.3393;2.86275
14.3455;3.15686
14.3518;2.76471
14.358;3.56863
14.3642;4.07843
14.3704;3.66667
14.3767;3.64706
14.3829;4.66667
14.3891;4.09804
14.3954;3.5098
14.4016;4.19608
14.4078;4.29412
14.414;3.39216
14.4203;3.94118
14.4265;3.78431
14.4327;3.13725
14.4389;3.90196
14.4452;3.80392
14.4514;2.90196
14.4576;3.23529
14.4638;3.88235
14.4701;2.72549
14.4763;3.27451
14.4825;3.47059
14.4887;2.92157
14.495;2.80392
14.5012;3.52941
14.5074;3.01961
14.5136;2.92157
14.5199;3.37255
14.5261;2.82353
14.5323;2.5098
14.5385;3.07843
14.5448;2.96078
14.5509;2.21569
14.5571;3.27451
14.5633;2.76471
14.5694;2.23529
14.5756;3.33333
14.5818;2.98039
14.5879;2.23529
14.5941;2.94118
14.6002;2.96078
14.6064;2.33333
14.6126;3.09804
14.6187;3.27451
14.6249;2.33333
14.6311;2.72549
14.6372;3.2549
14.6434;2.21569
14.6496;2.78431
14.6557;3.07843
14.6619;2.37255
14.6681;2.39216
14.6742;3.39216
14.6804;2.60784
14.6866;2.66667
14.6927;3.11765
14.6989;2.60784
14.705;2.27451
14.7112;3.2549
14.7174;2.70588
14.7235;2.13725
14.7297;3
14.7359;2.92157
14.742;1.90196
14.7482;2.64706
14.7544;3.03922
14.7605;2.27451
14.7667;2.2549
14.7729;2.98039
14.779;2.68627
14.7852;2.03922
14.7913;3.01961
14.7975;2.88235
14.8037;1.92157
14.8098;2.68627
14.816;2.78431
14.8222;2.27451
14.8283;2.21569
14.8345;2.94118
14.8407;2.62745
14.8468;1.94118
14.853;2.76471
14.8592;2.68627
14.8653;2.05882
14.8715;2.52941
14.8777;2.78431
14.8838;2.05882
14.89;1.82353
14.8961;2.19608
14.9023;1.82353
14.9085;1.45098
14.9146;2.31373
14.9208;2.39216
14.927;1.80392
14.9331;2.82353
14.9393;2.64706
14.9455;1.98039
14.9516;3.19608
14.9578;3.31373
14.964;2.43137
14.9701;3.37255
14.9763;3.19608
14.9824;2.37255
14.9886;2.96078
14.9948;3.35294
15.0009;2.70588
15.0071;2.37255
15.0133;3.17647
15.0194;2.35294
15.0256;2.80392
15.0318;3.27451
15.0379;2.70588
15.0441;2.23529
15.0503;2.07843
15.0564;0.0196078
15.0626;0
15.0688;0.0784314
15.0749;0.0588235
15.0811;0.666667
15.0872;2.84314
15.0934;3.45098
15.0996;2.78431
15.1057;3.52941
15.1119;3.03922
15.1181;2.35294
15.1242;3.33333
15.1304;3.13725
15.1366;2.2549
15.1427;3.15686
15.1489;2.90196
15.1551;2.09804
15.1612;2.80392
15.1674;3
15.1736;2.03922
15.1799;2.21569
15.1861;2.7451
15.1924;2.13725
15.1986;1.54902
15.2049;2.45098
15.2111;2.13725
15.2174;1.2549
15.2236;2.15686
15.2299;2.07843
15.2361;1.27451
15.2424;1.33333
15.2486;1.72549
15.2549;1.13725
15.2611;0.588235
15.2674;1.29412
15.2736;0.980392
15.2799;0.294118
15.2861;0.901961
15.2924;1
15.2986;0.196078
15.3049;0.745098
15.3111;1.05882
15.3173;0.333333
15.3236;0.509804
15.3298;1.5098
15.3361;1.4902
15.3423;1.35294
15.3486;2.58824
15.3548;2.98039
15.3611;2.56863
15.3673;3.37255
15.3736;4.07843
15.3798;3.70588
15.3861;4.15686
15.3923;4.58824
15.3986;3.7451
15.4048;3.94118
15.4111;4.64706
15.4173;4.17647
15.4236;3.58824
15.4298;4.35294
15.4361;3.82353
15.4423;3.39216
15.4486;4.29412
15.4548;3.7451
15.4611;2.96078
15.4673;3.80392
15.4736;3.37255
15.4798;2.80392
15.486;3.68627
15.4922;3.5098
15.4983;2.64706
15.5045;3.27451
15.5107;3.58824
15.5168;2.45098
15.523;3.37255
15.5292;3.37255
15.5353;2.5098
15.5415;2.92157
15.5477;3.37255
15.5538;2.72549
15.56;3.17647
15.5662;3.27451
15.5723;2.43137
15.5785;2.72549
15.5846;3.29412
15.5908;2.82353
15.597;2.39216
15.6031;3.27451
15.6093;2.70588
15.6155;2.62745
15.6216;3.23529
15.6278;2.72549
15.634;2.27451
15.6401;3.07843
15.6463;2.82353
15.6525;2.21569
15.6586;3.27451
15.6648;3
15.671;1.98039
15.6771;2.92157
15.6833;3.13725
15.6894;2.35294
15.6956;2.60784
15.7018;3.17647
15.7079;2.56863
15.7141;2.15686
15.7203;3
15.7264;2.70588
15.7326;2.03922
15.7388;2.96078
15.7449;2.94118
15.7511;2.2549
15.7573;2.35294
15.7634;3.05882
15.7696;2.58824
15.7757;2.2549
15.7819;3.07843
15.7881;2.76471
15.7942;2.11765
15.8004;2.88235
15.8066;3.05882
15.8127;2.29412
15.8189;2.52941
15.8251;3.11765
15.8312;2.54902
15.8374;2
15.8436;2.86275
15.8497;2.35294
15.8559;1.4902
15.8621;2.19608
15.8682;2.27451
15.8744;1.60784
15.8805;1.90196
15.8867;2.37255
15.8929;1.64706
15.899;2.54902
15.9052;2.72549
15.9114;2.21569
15.9175;2.37255
15.9237;3.33333
15.9299;2.43137
15.936;2.92157
15.9422;3.29412
15.9484;2.7451
15.9545;2.47059
15.9607;3.43137
15.9669;3.27451
15.973;2.68627
15.9792;3.27451
15.9853;2.80392
15.9915;2.17647
15.9977;3.11765
16.0038;3.03922
16.01;2.5098
16.0162;2.66667
16.0223;1.23529
16.0285;0.117647
16.0347;0.137255
16.0408;0.0588235
16.047;0.0980392
16.0532;1.43137
16.0593;3.35294
16.0655;2.86275
16.0716;3.45098
16.0778;3.5098
16.084;2.72549
16.0901;3.09804
16.0963;3.35294
16.1025;2.4902
16.1086;2.90196
16.1149;3.27451
16.1211;2.52941
16.1273;2.47059
16.1335;3.15686
16.1397;2.68627
16.1459;2.4902
16.1522;2.92157
16.1584;2.27451
16.1646;1.7451
16.1708;2.70588
16.177;2.33333
16.1833;1.5098
16.1895;2.23529
16.1957;2.19608
16.2019;1.35294
16.2081;1.47059
16.2143;2
16.2206;1.2549
16.2268;0.803922
16.233;1.5098
16.2392;1.13725
16.2454;0.313726
16.2516;1.15686
16.2579;1.07843
16.2641;0.0392157
16.2703;0.352941
16.2765;0.882353
16.2827;0.294118
16.289;0.333333
16.2952;1.03922
16.3014;0.980392
16.3076;0.705882
16.3138;1.90196
16.32;2.2549
16.3263;2.01961
16.3325;2.78431
16.3387;3.54902
16.3449;3.13725
16.3511;3.84314
16.3574;4.19608
16.3636;3.58824
16.3698;3.62745
16.376;4.33333
16.3822;3.4902
16.3884;3.7451
16.3947;4.33333
16.4009;3.58824
16.4071;3.21569
16.4133;3.92157
16.4195;3.54902
16.4257;3.01961
16.4319;3.72549
16.4381;3.15686
16.4443;2.62745
16.4505;3.35294
16.4567;3.2549
16.4629;2.5098
16.469;3.2549
16.4752;2.94118
16.4814;2.35294
16.4876;3.09804
16.4938;3.09804
16.5;2.15686
16.5062;2.84314
16.5124;2.88235
16.5185;2.37255
16.5247;2.98039
16.5309;3.05882
16.5371;2.37255
16.5433;2.58824
16.5495;3.09804
16.5557;2.15686
16.5619;2.70588
16.568;3.15686
16.5742;2.39216
16.5804;2.31373
16.5866;3.19608
16.5928;2.80392
16.599;2.58824
16.6052;3.09804
16.6114;2.60784
16.6175;2.29412
16.6237;3.23529
16.6299;3.19608
16.6361;2.19608
16.6423;3.03922
16.6485;3.01961
16.6547;2.39216
16.6609;2.52941
16.667;3.52941
16.6732;2.4902
16.6794;2.19608
16.6856;3.03922
16.6918;2.80392
16.698;2.05882
16.7042;2.78431
16.7104;2.92157
16.7165;2.03922
16.7227;2.41176
16.7289;2.96078
16.7351;2.43137
16.7413;2.15686
16.7475;3.05882
16.7537;2.56863
16.7599;1.94118
16.766;2.84314
16.7722;2.84314
16.7784;2.03922
16.7846;2.54902
16.7908;3.13725
16.797;2.17647
16.8032;2
16.8094;2.60784
16.8155;2.2549
16.8217;1.56863
16.8279;2.35294
16.8341;2.19608
16.8403;1.35294
16.8465;2.54902
16.8527;2.41176
16.8589;1.68627
16.865;2.39216
16.8712;2.70588
16.8774;2.07843
16.8836;3.05882
16.8898;3.45098
16.896;2.64706
16.9022;3.07843
16.9084;3.47059
16.9145;2.94118
16.9207;2.68627
16.9269;3.35294
16.9331;2.60784
16.9393;2.62745
16.9455;3.37255
16.9517;2.92157
16.9579;2.29412
16.964;3.2549
16.9702;2.90196
16.9764;2.52941
16.9826;2.94118
16.9888;1.23529
16.995;0.0392157
17.0012;0.0980392
17.0074;0
17.0135;0.411765
17.0197;2.23529
17.0259;2.96078
17.0321;2.4902
17.0383;3.5098
17.0445;3.60784
17.0507;2.82353
17.0569;3.60784
17.0631;3.54902
17.0693;2.64706
17.0755;3.07843
17.0818;3.43137
17.088;2.76471
17.0942;2.60784
17.1004;3.15686
17.1066;2.29412
17.1128;2.37255
17.1191;3.01961
17.1253;2.33333
17.1315;1.96078
17.1377;2.72549
17.1439;2.41176
17.1502;1.54902
17.1564;2.19608
17.1626;2.29412
17.1688;1.47059
17.175;1.80392
17.1812;2.15686
17.1875;1.41176
17.1937;1.09804
17.1999;1.80392
17.2061;1.41176
17.2123;0.568627
17.2186;1.29412
17.2248;1.35294
17.231;0.529412
17.2372;0.843137
17.2434;1.62745
17.2496;0.784314
17.2559;0.705882
17.2621;1.72549
17.2683;1.64706
17.2745;1.2549
17.2807;2.39216
17.2869;2.84314
17.2932;2.4902
17.2994;3.13725
17.3056;3.82353
17.3118;3.60784
17.318;3.4902
17.3243;4.43137
17.3305;4.27451
17.3367;3.45098
17.3429;4.58824
17.3491;4.01961
17.3553;3.52941
17.3616;4.39216
17.3677;4.15686
17.3739;3.21569
17.38;3.76471
17.3862;3.58824
17.3923;2.92157
17.3985;3.80392
17.4046;3.78431
17.4108;2.82353
17.4169;3.17647
17.4231;3.58824
17.4292;2.4902
17.4354;3.29412
17.4415;3.37255
17.4477;2.62745
17.4538;2.72549
17.46;3.05882
17.4661;2.82353
17.4723;2.88235
17.4784;3.17647
17.4846;2.60784
17.4907;2.41176
17.4969;3.07843
17.503;2.78431
17.5092;2.21569
17.5153;3.19608
17.5215;2.70588
17.5276;2.62745
17.5338;3.19608
17.5399;2.92157
17.5461;2.23529
17.5522;3.01961
17.5584;2.80392
17.5645;2.23529
17.5707;3.03922
17.5768;3.01961
17.583;2.15686
17.5891;2.7451
17.5953;2.92157
17.6014;2
17.6076;2.88235
17.6137;2.96078
17.6199;2.07843
17.626;2.35294
17.6322;2.82353
17.6383;2.43137
17.6445;2.17647
17.6506;3.05882
17.6568;2.66667
17.6629;1.86275
17.6691;2.82353
17.6752;2.92157
17.6815;2.13725
17.6877;2.5098
17.6939;2.80392
17.7002;2.37255
17.7064;2.13725
17.7127;2.98039
17.7189;2.68627
17.7251;1.98039
17.7314;2.94118
17.7376;2.90196
17.7439;2.15686
17.7501;2.5098
17.7563;3
17.7626;2.35294
17.7688;2.05882
17.7751;2.82353
17.7813;2.56863
17.7875;1.78431
17.7938;2.66667
17.8;2.52941
17.8063;1.39216
17.8125;1.78431
17.8188;2.07843
17.825;1.5098
17.8312;1.47059
17.8375;2.43137
17.8437;1.94118
17.85;1.84314
17.8562;2.52941
17.8624;2.15686
17.8687;1.92157
17.8749;3.07843
17.8812;3.03922
17.8874;2.37255
17.8936;3.47059
17.8999;3.01961
17.9061;2.21569
17.9124;3.37255
17.9186;3.19608
17.9248;1.96078
17.9311;3.27451
17.9373;3
17.9436;2.23529
17.9498;3.01961
17.9561;3.58824
17.9623;2.52941
17.9685;1.94118
17.9748;0.803922
17.981;0
17.9873;0
17.9935;0.0392157
17.9997;0.196078
18.0059;1.2549
18.0121;2.94118
18.0183;2.78431
18.0245;2.92157
18.0307;3.58824
18.0369;3.03922
18.0431;2.64706
18.0493;3.56863
18.0555;3.29412
18.0617;2.70588
18.0679;3.35294
18.0741;3.01961
18.0803;2.27451
18.0865;3
18.0927;2.90196
18.0989;1.94118
18.1051;2.60784
18.1113;2.80392
18.1175;1.98039
18.1237;2.03922
18.1299;2.52941
18.1361;2.09804
18.1423;1.5098
18.1485;2.31373
18.1547;2.43137
18.1609;1.29412
18.1672;1.76471
18.1734;2.03922
18.1796;1.07843
18.1858;1.07843
18.192;1.62745
18.1982;1.01961
18.2044;0.588235
18.2106;1.19608
18.2168;1.01961
18.223;0.313726
18.2292;0.941176
18.2354;1.27451
18.2416;0.627451
18.2478;1.03922
18.254;1.80392
18.2602;1.66667
18.2664;1.56863
18.2726;2.78431
18.2788;2.88235
18.285;2.5098
18.2912;3.64706
18.2974;4.03922
18.3036;3.23529
18.3098;4.23529
18.3159;4.31373
18.322;3.58824
18.3282;3.98039
18.3343;4.41176
18.3405;3.82353
18.3466;4.05882
18.3527;4.21569
18.3589;3.39216
18.365;3.41176
18.3712;3.98039
18.3773;3.33333
18.3835;2.86275
18.3896;3.60784
18.3957;3.07843
18.4019;2.78431
18.408;3.54902
18.4142;3.03922
18.4203;2.35294
18.4264;3.23529
18.4326;2.64706
18.4387;2.33333
18.4449;3.27451
18.451;2.80392
18.4572;2.03922
18.4633;2.86275
18.4694;3.03922
18.4756;1.92157
18.4817;2.94118
18.4879;2.82353
18.494;2.05882
18.5001;2.45098
18.5063;2.96078
18.5124;2.54902
18.5186;2.72549
18.5247;2.86275
18.5309;2.13725
18.537;2.27451
18.5431;2.84314
18.5493;2.33333
18.5554;2.09804
18.5616;2.94118
18.5677;2.31373
18.5738;2.56863
18.58;2.96078
18.5861;2.52941
18.5923;2.09804
18.5984;3.01961
18.6046;2.94118
18.6107;2.11765
18.6168;2.54902
18.623;3.09804
18.6292;2.31373
18.6354;2.43137
18.6416;3.05882
18.6479;2.60784
18.6541;2.23529
18.6603;3.17647
18.6665;2.96078
18.6727;2.09804
18.6789;2.80392
18.6851;3.11765
18.6913;2.37255
18.6975;2.45098
18.7037;3.19608
18.7099;2.70588
18.7161;2.19608
18.7223;3.07843
18.7285;2.96078
18.7347;2.13725
18.7409;2.76471
18.7471;3.13725
18.7533;2.27451
18.7595;2.76471
18.7657;3.09804
18.7719;2.62745
18.7781;2
18.7843;2.98039
18.7905;2.52941
18.7967;1.66667
18.8029;2.39216
18.8091;2.09804
18.8153;1.60784
18.8215;2.62745
18.8277;2.94118
18.8339;1.76471
18.8401;2.33333
18.8463;2.70588
18.8525;2.11765
18.8587;3.13725
18.8649;3.33333
18.8711;2.80392
18.8773;2.88235
18.8836;3.62745
18.8898;2.58824
18.896;3.21569
18.9022;3.56863
18.9084;2.72549
18.9146;2.86275
18.9208;3.52941
18.927;3.03922
18.9332;2.90196
18.9394;3.64706
18.9455;3
18.9517;1.96078
18.9579;1.68627
18.9641;0.0980392
18.9703;0.0392157
18.9765;0.117647
18.9827;0.235294
18.9889;1.2549
18.995;3.35294
19.0012;3.60784
19.0074;2.80392
19.0136;3.19608
19.0198;3.29412
19.026;2.56863
19.0322;3.54902
19.0384;3.47059
19.0445;2.54902
19.0507;2.82353
19.0569;3.27451
19.0631;2.29412
19.0693;2.76471
19.0755;3.21569
19.0817;2.27451
19.0879;2.21569
19.094;2.78431
19.1002;2.31373
19.1064;1.66667
19.1126;2.56863
19.1188;2.29412
19.125;1.47059
19.1312;1.88235
19.1374;2.01961
19.1435;1.21569
19.1497;1.39216
19.1559;1.86275
19.1621;1.31373
19.1683;0.882353
19.1745;1.56863
19.1807;1.2549
19.1869;0.392157
19.193;0.921569
19.1992;1.21569
19.2054;0.431373
19.2116;0.588235
19.2178;1.43137
19.224;0.823529
19.2302;0.666667
19.2364;1.82353
19.2425;1.86275
19.2487;1.4902
19.2549;2.64706
19.2611;3.21569
19.2672;2.78431
19.2734;3.45098
19.2796;4.5098
19.2857;3.92157
19.2919;3.5098
19.2981;4.64706
19.3043;4.03922
19.3104;3.62745
19.3166;4.62745
19.3228;4.35294
19.3289;3.37255
19.3351;4.2549
19.3413;3.96078
19.3475;3.2549
19.3536;4.03922
19.3598;3.64706
19.366;2.78431
19.3722;3.68627
19.3783;3.64706
19.3845;3.01961
19.3907;3.58824
19.3968;3.39216
19.403;2.45098
19.4092;3
19.4154;3.35294
19.4215;2.72549
19.4277;2.54902
19.4339;3.41176
19.44;2.4902
19.4462;2.60784
19.4524;3.11765
19.4586;2.62745
19.4647;2.27451
19.4709;3.23529
19.4771;2.52941
19.4833;2.4902
19.4894;3.19608
19.4956;2.7451
19.5018;2.13725
19.5079;2.96078
19.5141;3.15686
19.5203;2.33333
19.5265;3.21569
19.5326;2.94118
19.5388;2.13725
19.545;3.11765
19.5511;3.11765
19.5573;2.35294
19.5635;3.23529
19.5698;3
19.576;2.15686
19.5822;2.82353
19.5884;3.13725
19.5946;2.43137
19.6008;2.45098
19.607;3.13725
19.6132;2.62745
19.6194;2.2549
19.6257;2.92157
19.6319;2.84314
19.6381;2
19.6443;2.68627
19.6505;2.80392
19.6567;2.13725
19.6629;2.27451
19.6691;2.58824
19.6753;2.13725
19.6815;1.68627
19.6878;2.45098
19.694;2.01961
19.7002;1.19608
19.7064;2.17647
19.7126;2.41176
19.7188;2.07843
19.725;2.01961
19.7312;2.4902
19.7374;2.07843
19.7436;1.86275
19.7499;2.92157
19.7561;3.03922
19.7623;2.58824
19.7685;3.5098
19.7747;3.07843
19.7809;2.41176
19.7871;3.17647
19.7933;3.31373
19.7995;2.43137
19.8058;3.33333
19.812;3.23529
19.8182;2.13725
19.8244;2.92157
19.8306;3.31373
19.8368;2.4902
19.843;2.68627
19.8492;2.07843
19.8554;0.313726
19.8616;0.0392157
19.8679;0.0588235
19.874;0.235294
19.8802;0.54902
19.8864;2.37255
19.8926;2.94118
19.8988;3.21569
19.905;3.68627
19.9112;2.96078
19.9174;2.52941
19.9235;3.19608
19.9297;3.05882
19.9359;2.60784
19.9421;3.27451
19.9483;2.92157
19.9545;2.15686
19.9607;3.15686
19.9669;2.98039
19.973;2.15686
19.9792;2.90196
19.9854;2.5098
19.9916;1.66667
19.9978;2.4902
20.004;2.29412
20.0102;1.80392
20.0164;1.92157
20.0225;2.09804
20.0287;1.23529
20.0349;2.13725
20.0411;2.03922
20.0473;1.21569
20.0535;1.09804
20.0597;1.52941
20.0659;1.33333
20.072;0.607843
20.0782;1.45098
20.0844;1.13725
20.0906;0.294118
20.0968;0.960784
20.103;1.21569
20.1092;0.588235
20.1154;0.843137
20.1215;1.66667
20.1277;1.39216
20.1339;1.27451
20.1401;2.52941
20.1463;2.78431
20.1525;2.29412
20.1587;3.66667
20.1649;3.80392
20.171;3.43137
20.1772;3.72549
20.1834;4.62745
20.1896;4.19608
20.1958;3.86275
20.202;4.62745
20.2081;4.41176
20.2143;3.52941
20.2205;4.21569
20.2267;4.43137
20.2328;3.60784
20.239;3.64706
20.2452;4.17647
20.2514;3.64706
20.2576;3.09804
20.2637;3.98039
20.2699;3.23529
20.2761;2.98039
20.2823;3.76471
20.2885;3.37255
20.2946;2.52941
20.3008;3.86275
20.307;2.90196
20.3132;2.4902
20.3194;3.41176
20.3255;3.07843
20.3317;2.35294
20.3379;3.15686
20.3441;3.19608
20.3503;2.31373
20.3564;3.29412
20.3626;3.17647
20.3688;2.37255
20.375;3.01961
20.3812;3.29412
20.3873;2.54902
20.3935;3.13725
20.3997;3.31373
20.4059;2.15686
20.4121;2.70588
20.4182;3.37255
20.4244;2.68627
20.4306;2.47059
20.4368;3.19608
20.443;2.62745
20.4491;2.64706
20.4553;3.17647
20.4615;2.68627
20.4677;2.33333
20.4739;3.23529
20.48;2.66667
20.4862;2.31373
20.4924;3.09804
20.4986;2.76471
20.5049;2.03922
20.5111;2.92157
20.5174;2.96078
20.5236;1.88235
20.5299;2.94118
20.5361;2.76471
20.5424;1.98039
20.5486;2.56863
20.5549;2.60784
20.5611;2.05882
20.5674;1.86275
20.5736;2.41176
20.5799;2
20.5861;1.66667
20.5924;2.66667
20.5986;2.41176
20.6049;1.68627
20.6111;2.60784
20.6174;2.88235
20.6236;2.54902
20.6299;2.82353
20.6361;3.72549
20.6424;3.15686
20.6486;2.68627
20.6549;3.52941
20.6611;3.27451
20.6674;2.35294
20.6736;3.13725
20.6799;3.43137
20.6861;2.60784
20.6924;2.72549
20.6986;3.2549
20.7048;2.84314
20.7111;2.54902
20.7173;3.19608
20.7236;2.01961
20.7298;0
20.7361;0.0588235
20.7423;0.0980392
20.7486;0.0196078
20.7548;0.588235
20.7611;2.17647
20.7673;2.62745
20.7736;3.33333
20.7798;3.86275
20.7861;3.41176
20.7923;3.03922
20.7986;3.80392
20.8048;3.37255
20.811;3.09804
20.8172;3.52941
20.8234;2.92157
20.8296;2.4902
20.8357;3.2549
20.8419;3.03922
20.8481;2.03922
20.8542;3.01961
20.8604;2.52941
20.8666;1.82353
20.8728;2.70588
20.8789;2.4902
20.8851;1.62745
20.8913;2.13725
20.8974;2.17647
20.9036;1.37255
20.9098;2.01961
20.916;2.01961
20.9221;1.29412
20.9283;1.33333
20.9345;1.70588
20.9407;0.803922
20.9468;1.05882
20.953;1.35294
20.9592;0.666667
20.9653;0.568627
20.9715;1.39216
20.9777;0.882353
20.9839;1.05882
20.99;1.70588
20.9962;1.35294
21.0024;1.31373
21.0085;2.62745
21.0147;2.52941
21.0209;2.35294
21.0271;3.7451
21.0332;3.92157
21.0394;3.33333
21.0456;4.31373
21.0518;4.2549
21.0579;3.43137
21.0641;4.29412
21.0703;4.47059
21.0764;3.52941
21.0826;3.68627
21.0888;4.23529
21.095;3.43137
21.1011;3.23529
21.1073;3.94118
21.1135;3.5098
21.1196;2.86275
21.1259;3.58824
21.1321;3.68627
21.1383;2.92157
21.1445;3.05882
21.1507;3.62745
21.1569;3
21.1631;2.4902
21.1693;3.54902
21.1755;3.07843
21.1817;2.29412
21.188;2.96078
21.1942;3.23529
21.2004;2.43137
21.2066;2.60784
21.2128;3.05882
21.219;2.13725
21.2252;2.78431
21.2314;2.92157
21.2376;2.47059
21.2439;2.41176
21.2501;3.19608
21.2563;2.47059
21.2625;2.52941
21.2687;3.09804
21.2749;2.47059
21.2811;2.23529
21.2873;3.13725
21.2935;2.76471
21.2997;1.88235
21.306;2.94118
21.3122;2.60784
21.3184;2.05882
21.3246;2.94118
21.3308;2.88235
21.337;2.05882
21.3432;2.39216
21.3494;2.80392
21.3556;1.82353
21.3618;2.78431
21.3681;2.80392
21.3743;1.86275
21.3805;1.96078
21.3867;2.29412
21.3929;1.31373
21.3991;1.86275
21.4053;2.17647
21.4115;1.54902
21.4177;1.78431
21.424;2.35294
21.4302;2.23529
21.4364;2.33333
21.4426;3.15686
21.4488;2.56863
21.4551;2.39216
21.4613;3.29412
21.4675;2.82353
21.4737;2.29412
21.48;3.19608
21.4862;2.80392
21.4924;1.90196
21.4986;3.11765
21.5049;2.7451
21.5111;2.31373
21.5173;2.68627
21.5235;3.29412
21.5298;2.15686
21.536;1.52941
21.5422;0.941176
21.5484;0
21.5547;0.0588235
21.5609;0
21.5671;0.176471
21.5733;0.411765
21.5796;2.54902
21.5858;3.19608
21.592;2.64706
21.5982;2.82353
21.6045;3.52941
21.6107;2.88235
21.6169;2.54902
21.6231;3.37255
21.6294;3.33333
21.6356;2.37255
21.6418;3
21.648;3.2549
21.6543;2.39216
21.6605;2.5098
21.6667;3.11765
21.673;2.43137
21.6792;1.88235
21.6854;2.84314
21.6916;2.58824
21.6979;1.70588
21.7041;2.52941
21.7103;2.62745
21.7165;1.7451
21.7228;2.45098
21.729;2.11765
21.7352;1.39216
21.7414;1.70588
21.7477;2
21.7538;1.23529
21.76;1.03922
21.7661;1.45098
21.7723;0.54902
21.7784;0.705882
21.7846;1.11765
21.7908;0.647059
21.7969;0.411765
21.8031;1.70588
21.8092;0.803922
21.8154;0.980392
21.8215;2.03922
21.8277;1.96078
21.8339;1.72549
21.84;3.09804
21.8462;3.23529
21.8523;3.07843
21.8585;4
21.8646;3.98039
21.8708;3.37255
21.877;4.21569
21.8831;4.43137
21.8893;3.54902
21.8954;4.21569
21.9016;3.98039
21.9077;3.23529
21.9139;3.7451
21.9201;3.96078
21.9262;3.19608
21.9324;3.21569
21.9385;3.66667
21.9447;2.80392
21.9508;3.19608
21.957;3.43137
21.9632;2.94118
21.9693;2.62745
21.9755;3.45098
21.9816;2.66667
21.9878;2.70588
21.9939;3.33333
22.0001;2.78431
22.0062;2.37255
22.0124;3.17647
22.0186;3.03922
22.0247;2.15686
22.0309;2.76471
22.037;3.05882
22.0432;2.35294
22.0493;2.45098
22.0555;3.03922
22.0617;2.56863
22.0679;1.94118
22.0741;3.19608
22.0803;2.82353
22.0865;2.09804
22.0927;2.70588
22.0989;2.98039
22.1051;2.2549
22.1113;2.37255
22.1176;3.03922
22.1238;2.54902
22.13;2.13725
22.1362;2.70588
22.1424;2.7451
22.1486;2.01961
22.1548;2.78431
22.161;2.88235
22.1672;1.98039
22.1734;2.27451
22.1797;2.90196
22.1859;2.33333
22.1921;1.82353
22.1983;2.64706
22.2045;2.01961
22.2107;0.941176
22.2169;1.96078
22.2231;1.84314
22.2293;1.37255
22.2355;2.37255
22.2418;2.35294
22.248;1.86275
22.2542;2.5098
22.2604;3.13725
22.2666;2.27451
22.2728;3.17647
22.279;3.37255
22.2852;2.56863
22.2914;2.78431
22.2977;3.23529
22.3039;2.84314
22.3101;2.88235
22.3163;3.29412
22.3225;2.66667
22.3287;2.56863
22.3349;3.37255
22.3411;3.17647
22.3473;2.43137
22.3535;2.19608
22.3598;0.294118
22.366;0
22.3722;0.0980392
22.3784;0.0196078
22.3846;0.137255
22.3908;1.94118
22.3969;2.98039
22.4031;2.68627
22.4093;3.66667
22.4155;3.37255
22.4217;2.70588
22.4279;3.27451
22.4341;3.72549
22.4403;2.21569
22.4464;3.39216
22.4526;3.43137
22.4588;2.47059
22.465;2.82353
22.4712;3.03922
22.4774;2.76471
22.4836;2.62745
22.4897;2.7451
22.4959;2.05882
22.5021;2.05882
22.5083;2.72549
22.5145;2.29412
22.5207;1.54902
22.5269;2.33333
22.5331;1.94118
22.5392;1.13725
22.5454;1.86275
22.5516;1.88235
22.5578;0.980392
22.564;1.09804
22.5702;1.41176
22.5764;0.862745
22.5826;0.470588
22.5887;1.11765
22.5949;0.823529
22.6011;0.333333
22.6073;0.941176
22.6135;1.13725
22.6197;0.45098
22.6259;0.901961
22.6321;1.78431
22.6382;1.52941
22.6444;1.58824
22.6506;2.68627
22.6568;3.01961
22.663;2.37255
22.6692;3.5098
22.6754;3.88235
22.6816;3.2549
22.6877;3.70588
22.6939;4.35294
22.7001;3.78431
22.7062;3.52941
22.7124;4.35294
22.7185;4.09804
22.7247;3.35294
22.7308;4.09804
22.737;3.64706
22.7431;3.03922
22.7493;3.98039
22.7554;3.66667
22.7616;2.72549
22.7677;3.86275
22.7739;3.60784
22.78;2.58824
22.7862;3.43137
22.7923;3.27451
22.7985;2.4902
22.8046;2.86275
22.8108;3.13725
22.8169;2.29412
22.8231;2.94118
22.8292;3.21569
22.8354;2.35294
22.8415;2.62745
22.8476;3.03922
22.8538;2.33333
22.8599;2.70588
22.8661;3.2549
22.8722;2.52941
22.8784;2.31373
22.8845;3.03922
22.8907;2.70588
22.8968;2.39216
22.903;3.11765
22.9091;2.47059
22.9153;2.03922
22.9214;3.01961
22.9276;2.70588
22.9337;1.90196
22.9399;3.13725
22.946;2.76471
22.9522;1.98039
22.9583;3
22.9645;3
22.9706;2.21569
22.9768;2.45098
22.9829;3.11765
22.9891;2.41176
22.9952;2.21569
23.0014;2.96078
23.0076;2.56863
23.0138;1.98039
23.0201;2.92157
23.0263;2.94118
23.0325;2.11765
23.0388;2.4902
23.045;2.54902
23.0512;2.01961
23.0575;1.62745
23.0637;2.37255
23.0699;2.15686
23.0762;1.58824
23.0824;2.60784
23.0886;2.52941
23.0949;2.31373
23.1011;2.78431
23.1073;3.39216
23.1136;2.66667
23.1198;2.7451
23.126;3.43137
23.1323;3.13725
23.1385;2.47059
23.1447;3.5098
23.151;3.41176
23.1572;2.45098
23.1634;3.03922
23.1697;3.23529
23.1759;2.54902
23.1821;3.33333
23.1884;3.41176
23.1946;2.62745
23.2008;2.27451
23.2071;1.5098
23.2133;0
23.2195;0.0588235
23.2258;0.0980392
23.232;0.117647
23.2382;1.60784
23.2445;3.58824
23.2507;3.64706
23.2569;2.80392
23.2632;3.80392
23.2694;2.84314
23.2756;2.58824
23.2819;3.45098
23.2881;3.05882
23.2943;2.29412
23.3006;3.13725
23.3068;3.21569
23.313;2.09804
23.3193;3.21569
23.3255;2.84314
23.3317;1.92157
23.3379;2.66667
23.3441;2.66667
23.3503;1.90196
23.3565;2.52941
23.3627;2.47059
23.3689;1.7451
23.3751;1.92157
23.3813;2.33333
23.3875;1.54902
23.3937;1.29412
23.3999;1.82353
23.4061;0.862745
23.4123;1.01961
23.4185;1.35294
23.4247;0.823529
23.4309;0.372549
23.4371;1.17647
23.4433;0.490196
23.4495;0.529412
23.4557;1.2549
23.4619;1.03922
23.4681;0.568627
23.4743;1.66667
23.4805;1.96078
23.4867;1.4902
23.4929;2.47059
23.4991;3.62745
23.5053;2.96078
23.5115;3.13725
23.5177;4.09804
23.5239;3.96078
23.5302;3.45098
23.5364;4.5098
23.5426;4.58824
23.5488;3.76471
23.555;4.09804
23.5612;4.47059
23.5674;3.78431
23.5736;3.54902
23.5798;4.43137
23.586;3.84314
23.5922;3.03922
23.5984;4.11765
23.6046;3.82353
23.6108;2.68627
23.617;3.45098
23.6232;3.56863
23.6294;2.56863
23.6355;2.94118
23.6417;3.54902
23.6478;3.05882
23.654;2.41176
23.6601;3.33333
23.6662;3.09804
23.6724;2.23529
23.6785;2.90196
23.6847;2.94118
23.6908;1.98039
23.697;2.90196
23.7031;3.07843
23.7092;2.29412
23.7154;2.54902
23.7215;2.98039
23.7277;2.13725
23.7338;2.82353
23.7399;3.07843
23.7461;2.07843
23.7522;2.37255
23.7584;3.09804
23.7645;2.66667
23.7707;2.37255
23.7768;3.05882
23.7829;2.66667
23.7891;2.17647
23.7952;3.07843
23.8014;2.84314
23.8075;2.01961
23.8136;2.94118
23.8198;2.56863
23.8259;2.09804
23.8321;3.07843
23.8382;2.7451
23.8444;1.80392
23.8505;2.33333
23.8566;2.05882
23.8628;1.47059
23.8689;2.35294
23.8751;2.4902
23.8812;1.86275
23.8873;2.17647
23.8935;2.98039
23.8996;2.21569
23.9058;3.11765
23.9119;3.37255
23.9181;2.43137
23.9242;2.64706
23.9303;3.5098
23.9365;2.98039
23.9427;2.88235
23.9489;3.39216
23.9551;2.68627
23.9614;2.41176
23.9676;3.09804
23.9738;2.84314
23.9801;2.29412
23.9863;3.23529
23.9925;3.05882
23.9988;1.45098
24.005;0.882353
24.0112;0.156863
24.0175;0
24.0237;0.0588235
24.0299;0.705882
24.0362;1.66667
24.0424;2.27451
24.0486;3.72549
24.0549;3.64706
24.0611;2.60784
24.0673;3.07843
24.0736;3.31373
24.0798;2.70588
24.086;2.70588
24.0923;3.21569
24.0985;2.72549
24.1047;2.21569
24.111;3.09804
24.1172;3.11765
24.1234;2.13725
24.1297;2.58824
24.1359;3.01961
24.1421;2.15686
24.1484;2.62745
24.1546;2.58824
24.1608;1.86275
24.1671;2.05882
24.1733;2.5098
24.1795;1.80392
24.1858;1.82353
24.192;2.11765
24.1982;1.21569
24.2045;1.21569
24.2107;1.7451
24.2169;1.15686
24.2232;0.470588
24.2294;1.17647
24.2356;0.509804
24.2419;0.352941
24.2481;1
24.2543;0.72549
24.2605;0.176471
24.2667;1.09804
24.2729;1.01961
24.2791;0.823529
24.2853;2.01961
24.2915;2.35294
24.2977;1.98039
24.3039;3
24.3102;3.62745
24.3164;2.90196
24.3226;4.09804
24.3288;4.27451
24.335;3.5098
24.3412;4
24.3474;4.45098
24.3536;3.80392
24.3598;4.09804
24.366;4.13725
24.3722;3.5098
24.3784;3.47059
24.3846;3.76471
24.3908;3.58824
24.397;2.96078
24.4032;3.80392
24.4094;3.17647
24.4156;2.82353
24.4218;3.62745
24.428;3.21569
24.4342;2.45098
24.4404;3.2549
24.4466;3.31373
24.4528;2.56863
24.459;2.90196
24.4652;3.2549
24.4714;2.94118
24.4776;2.45098
24.4838;3.21569
24.49;2.92157
24.4962;2.05882
24.5024;3
24.5086;3.05882
24.5148;2.23529
24.521;2.88235
24.5272;3.17647
24.5334;2.60784
24.5396;2.41176
24.5459;3.21569
24.5521;2.76471
24.5583;2.19608
24.5645;2.98039
24.5707;3.01961
24.5768;2.27451
24.583;2.7451
24.5892;2.98039
24.5954;2.56863
24.6016;2.41176
24.6077;3
24.6139;2.80392
24.6201;2.03922
24.6263;3.01961
24.6325;2.92157
24.6386;1.98039
24.6448;3.05882
24.651;2.72549
24.6572;1.84314
24.6633;2.72549
24.6695;2.64706
24.6757;1.7451
24.6819;1.98039
24.6881;2.03922
24.6942;1.43137
24.7004;2.29412
24.7066;2.47059
24.7128;1.94118
24.719;2.11765
24.7251;3.05882
24.7313;2.41176
24.7375;2.78431
24.7437;3.37255
24.7499;2.84314
24.756;2.4902
24.7622;3.43137
24.7684;3
24.7746;2.64706
24.7808;3.17647
24.7869;2.86275
24.7931;2.35294
24.7993;3.27451
24.8055;3.13725
24.8117;2.78431
24.8178;2.90196
24.824;1.47059
24.8302;0
24.8364;0
24.8426;0.0196078
24.8487;0
24.8549;0.980392
24.8611;2.94118
24.8673;2.47059
24.8735;3.35294
24.8796;3.47059
24.8859;2.78431
24.8921;3.01961
24.8983;3.56863
24.9045;2.78431
24.9107;3.03922
24.917;3.66667
24.9232;2.7451
24.9294;2.60784
24.9356;3.31373
24.9418;2.92157
24.948;2.09804
24.9543;3.09804
24.9605;2.86275
24.9667;2.05882
24.9729;2.72549
24.9791;2.84314
24.9853;2.11765
24.9916;1.92157
24.9978;2.43137
25.004;2.03922
25.0102;1.2549
25.0164;2.09804
25.0227;1.92157
25.0289;0.960784
25.0351;1.5098
25.0413;1.70588
25.0475;0.980392
25.0537;0.764706
25.06;1.37255
25.0662;0.921569
25.0724;0.470588
25.0786;1.35294
25.0848;1.33333
25.0911;0.607843
25.0973;1.33333
25.1035;1.94118
25.1097;1.54902
25.1159;1.88235
25.1221;3.01961
25.1284;3.23529
25.1346;2.68627
25.1408;4
25.147;3.70588
25.1532;3.66667
25.1595;4.41176
25.1657;4.23529
25.1719;3.54902
25.1781;4.29412
25.1843;4.21569
25.1905;3.29412
25.1968;4.09804
25.2029;3.92157
25.2091;3.09804
25.2152;3.64706
25.2214;3.94118
25.2275;3.05882
25.2337;3.66667
25.2399;3.52941
25.246;2.78431
25.2522;3
25.2583;3.60784
25.2645;3.03922
25.2706;2.62745
25.2768;3.29412
25.283;2.56863
25.2891;2.64706
25.2953;3.11765
25.3014;2.76471
25.3076;2.31373
25.3137;3.21569
25.3199;2.56863
25.3261;2.43137
25.3322;3.09804
25.3384;2.80392
25.3445;2.35294
25.3507;3
25.3568;3.01961
25.363;2.17647
25.3692;3.07843
25.3753;2.94118
25.3815;2.13725
25.3876;2.92157
25.3938;3.05882
25.3999;2.43137
25.4061;3.07843
25.4123;2.98039
25.4184;2.01961
25.4246;2.58824
25.4307;3.01961
25.4369;2.31373
25.443;2.27451
25.4492;3.17647
25.4553;2.66667
25.4615;1.94118
25.4677;2.98039
25.4738;2.84314
25.48;2.13725
25.4861;2.72549
25.4923;3.07843
25.4984;2.45098
25.5046;2.03922
25.5108;2.54902
25.517;1.90196
25.5232;1.39216
25.5294;2.45098
25.5356;2.37255
25.5418;1.5098
25.548;2.17647
25.5542;2.82353
25.5604;2.19608
25.5666;2.45098
25.5728;3.45098
25.579;3.47059
25.5852;2.29412
25.5914;3.41176
25.5976;3.41176
25.6038;2.60784
25.61;3
25.6162;3.47059
25.6224;2.80392
25.6286;2.7451
25.6348;3.35294
25.641;2.90196
25.6472;3.17647
25.6534;3.35294
25.6596;2.82353
25.6659;1.70588
25.6721;1.17647
25.6783;0
25.6845;0.0196078
25.6907;0.137255
25.6969;0.254902
25.7031;1.17647
25.7093;3.17647
25.7155;3.45098
25.7217;2.60784
25.7279;3.15686
25.7341;3.2549
25.7403;2.54902
25.7465;3.58824
25.7527;3.5098
25.7589;2.64706
25.7651;2.98039
25.7713;3.45098
25.7775;2.76471
25.7837;2.90196
25.7899;3.37255
25.7961;2.31373
25.8023;2.11765
25.8085;2.92157
25.8147;2.43137
25.8209;2.23529
25.8271;2.56863
25.8334;1.80392
25.8396;1.60784
25.8458;2.33333
25.852;1.78431
25.8583;1.03922
25.8645;1.58824
25.8707;1.31373
25.8769;0.843137
25.8832;1.56863
25.8894;1.17647
25.8956;0.372549
25.9019;1.01961
25.9081;1.07843
25.9143;0.470588
25.9205;0.666667
25.9268;1.5098
25.933;1
25.9392;0.901961
25.9454;2.01961
25.9517;2.15686
25.9579;1.72549
25.9641;2.86275
25.9703;3.54902
25.9766;2.98039
25.9828;3.41176
25.989;4.35294
25.9952;3.78431
26.0015;3.43137
26.0077;4.45098
26.0139;4.19608
26.0201;3.45098
26.0264;4.11765
26.0326;4.27451
26.0388;3.37255
26.045;3.60784
26.0513;4.07843
26.0575;3.21569
26.0637;3
26.0699;3.94118
26.0762;3.45098
26.0824;2.66667
26.0886;3.41176
26.0948;3.5098
26.1011;2.68627
26.1073;3.39216
26.1135;3.11765
26.1197;2.33333
26.126;2.92157
26.1322;3.33333
26.1384;2.76471
26.1446;2.47059
26.1507;3
26.1568;2.35294
26.1629;2.72549
26.1691;2.88235
26.1752;2.64706
26.1813;2.29412
26.1874;3.29412
26.1936;2.2549
26.1997;2.66667
26.2058;3.21569
26.2119;2.78431
26.2181;2.19608
26.2242;3.17647
26.2303;2.96078
26.2364;2.37255
26.2426;3.2549
26.2487;2.92157
26.2548;2.13725
26.261;3
26.2671;3.05882
26.2732;2.33333
26.2793;3.11765
26.2855;2.92157
26.2916;2.13725
26.2977;2.78431
26.3038;3
26.31;2.39216
26.3161;2.35294
26.3222;3.03922
26.3283;2.07843
26.3345;2.56863
26.3406;2.88235
26.3467;2.37255
26.3528;2.2549
26.359;3.07843
26.3651;1.98039
26.3712;2.09804
26.3774;2.31373
26.3835;1.68627
26.3896;1.45098
26.3957;2.72549
26.4019;2.05882
26.408;1.27451
26.4141;2.41176
26.4202;2.7451
26.4264;2.13725
26.4325;2.58824
26.4386;3.31373
26.4447;2.76471
26.4509;2.45098
26.4571;3.23529
26.4634;3.03922
26.4696;2.31373
26.4758;3.05882
26.482;3.15686
26.4883;2.27451
26.4945;2.62745
26.5007;3.05882
26.507;2.52941
26.5132;2.29412
26.5194;3.39216
26.5256;2.84314
26.5319;1.47059
26.5381;1.17647
26.5443;0.0196078
26.5505;0.0196078
26.5568;0.352941
26.563;0.0588235
26.5692;0.470588
26.5754;1.52941
26.5817;3.03922
26.5879;3.15686
26.5941;2.4902
26.6003;3.33333
26.6066;2.92157
26.6128;2.56863
26.619;3.15686
26.6252;3.19608
26.6315;2.37255
26.6377;2.92157
26.6439;3.07843
26.6501;1.98039
26.6564;2.70588
26.6626;2.54902
26.6688;1.88235
26.675;2.35294
26.6813;2.7451
26.6875;2.09804
26.6937;2.17647
26.6999;2.37255
26.7062;1.66667
26.7124;1.60784
26.7186;2.23529
26.7248;1.5098
26.7311;1.01961
26.7373;1.64706
26.7435;1.09804
26.7497;0.705882
26.756;1.4902
26.7622;0.941176
26.7684;0.215686
26.7746;1.15686
26.7808;0.666667
26.787;0.431373
26.7932;1.37255
26.7994;1.07843
26.8056;0.72549
26.8118;1.72549
26.818;2.31373
26.8242;1.88235
26.8303;3.17647
26.8365;3.52941
26.8427;2.98039
26.8489;3.62745
26.8551;4.33333
26.8613;3.76471
26.8675;4.33333
26.8737;4.41176
26.8799;3.7451
26.8861;3.7451
26.8923;4.5098
26.8985;3.76471
26.9047;3.33333
26.9109;4.21569
26.9171;3.96078
26.9233;2.94118
26.9295;3.70588
26.9357;3.80392
26.9419;2.96078
26.9481;3.05882
26.9542;3.7451
26.9604;3.17647
26.9666;2.80392
26.9728;3.58824
26.979;3.23529
26.9852;2.54902
26.9914;3.35294
26.9976;3.43137
27.0038;2.56863
27.01;2.86275
27.0162;3.4902
27.0224;2.76471
27.0286;2.21569
27.0348;3.27451
27.041;2.86275
27.0472;2.01961
27.0534;2.94118
27.0596;3.07843
27.0658;2.17647
27.072;2.66667
27.0781;3.11765
27.0843;2.5098
27.0904;2.23529
27.0965;3.11765
27.1027;2.80392
27.1088;2.39216
27.115;3
27.1211;2.52941
27.1273;2.13725
27.1334;3.01961
27.1395;2.88235
27.1457;1.90196
27.1518;3.05882
27.158;2.62745
27.1641;1.92157
27.1702;2.86275
27.1764;2.92157
27.1825;2.07843
27.1887;2.54902
27.1948;2.88235
27.201;2
27.2071;2.80392
27.2132;2.90196
27.2194;2.27451
27.2255;2.37255
27.2317;3
27.2378;1.94118
27.2439;2.33333
27.2501;2.60784
27.2562;1.90196
27.2624;1.52941
27.2685;2.35294
27.2747;2.05882
27.2808;1.92157
27.2869;2.56863
27.2931;2.31373
27.2992;1.96078
27.3054;3.09804
27.3115;3.07843
27.3176;2.47059
27.3238;3.2549
27.3299;2.90196
27.3361;2.39216
27.3422;3.31373
27.3484;3.27451
27.3545;2.41176
27.3606;3.01961
27.3668;3.27451
27.3729;2.45098
27.3791;2.5098
27.3852;3.5098
27.3914;3.09804
27.3976;2.29412
27.4038;2.4902
27.41;1.21569
27.4162;0
27.4224;0.0588235
27.4286;0.0784314
27.4348;0.0196078
27.441;1.15686
27.4472;3.35294
27.4534;3.21569
27.4596;2.68627
27.4658;3.29412
27.472;3.21569
27.4782;2.33333
27.4844;2.98039
27.4906;3.17647
27.4968;2.39216
27.503;2.33333
27.5092;3.05882
27.5154;2.66667
27.5216;2.01961
27.5278;2.88235
27.534;2.7451
27.5402;1.94118
27.5464;2.5098
27.5526;2.58824
27.5588;2.07843
27.5651;2.39216
27.5713;2.31373
27.5775;1.39216
27.5837;1.82353
27.5899;2.11765
27.5961;1.52941
27.6023;1.07843
27.6085;1.84314
27.6147;1.03922
27.6209;1.01961
27.6271;1.54902
27.6333;1.01961
27.6395;0.509804
27.6457;1.15686
27.6519;0.627451
27.6581;0.470588
27.6643;1.21569
27.6705;0.921569
27.6767;0.333333
27.6829;1.45098
27.6891;1.94118
27.6953;1.54902
27.7015;2.90196
27.7077;3.15686
27.7139;2.64706
27.7201;3.68627
27.7262;4.05882
27.7324;3.64706
27.7386;4.4902
27.7448;4.66667
27.7509;3.90196
27.7571;4.23529
27.7633;4.58824
27.7695;3.86275
27.7757;3.60784
27.7818;4.17647
27.788;3.31373
27.7942;3.43137
27.8004;3.96078
27.8066;3.39216
27.8127;2.90196
27.8189;3.70588
27.8251;3
27.8313;2.64706
27.8375;3.56863
27.8436;3.09804
27.8498;2.31373
27.856;3.47059
27.8622;3.31373
27.8684;2.31373
27.8745;3.03922
27.8807;3.37255
27.8869;2.64706
27.8931;2.56863
27.8993;3.35294
27.9054;2.98039
27.9116;2.35294
27.9178;3.11765
27.924;3.19608
27.9302;2.37255
27.9363;2.96078
27.9425;3.37255
27.9487;2.52941
27.9549;2.68627
27.9611;3.33333
27.9672;2.88235
27.9734;2.41176
27.9796;3.29412
27.9858;3
27.992;2.15686
27.9981;2.66667
28.0043;3.17647
28.0105;2.56863
28.0167;2.47059
28.0228;3.17647
28.029;2.72549
28.0351;2.05882
28.0412;3.11765
28.0474;2.90196
28.0535;2.13725
28.0597;2.76471
28.0658;2.64706
28.072;2
28.0781;2.78431
28.0842;2.7451
28.0904;1.72549
28.0965;2.21569
28.1027;2.29412
28.1088;1.33333
28.1149;2.09804
28.1211;2.47059
28.1272;1.90196
28.1334;2.01961
28.1395;2.86275
28.1457;2.62745
28.1518;2.96078
28.1579;3.47059
28.1641;2.86275
28.1702;2.7451
28.1764;3.37255
28.1825;3.11765
28.1886;2.62745
28.1948;3.2549
28.2009;3.27451
28.2071;2.39216
28.2132;3.39216
28.2194;3.23529
28.2255;2.31373
28.2316;3.2549
28.2378;3.01961
28.2439;1.62745
28.2501;1.52941
28.2562;0.431373
28.2623;0.392157
28.2685;0.137255
28.2746;0.901961
28.2808;2.11765
28.2869;3.68627
28.2931;3.96078
28.2992;2.86275
28.3053;2.96078
28.3115;3.39216
28.3176;2.82353
28.3238;2.90196
28.3299;3.19608
28.3362;2.43137
28.3424;2.37255
28.3487;3.11765
28.3549;2.58824
28.3611;1.94118
28.3674;2.94118
28.3736;2.72549
28.3799;1.82353
28.3861;2.43137
28.3924;2.80392
28.3986;2.01961
28.4049;1.78431
28.4111;2.21569
28.4174;2.09804
28.4236;1.37255
28.4299;2.17647
28.4361;1.92157
28.4424;1.09804
28.4486;1.58824
28.4549;1.72549
28.4611;0.941176
28.4674;0.882353
28.4736;1.47059
28.4799;0.960784
28.4861;0.588235
28.4924;1.19608
28.4986;1
28.5049;0.27451
28.5111;0.980392
28.5174;1.35294
28.5236;0.823529
28.5299;1.15686
28.5361;2.05882
28.5424;1.84314
28.5486;1.90196
28.5549;3.2549
28.5611;3.52941
28.5673;3.31373
28.5736;4.11765
28.5798;4.17647
28.5861;3.5098
28.5923;4.41176
28.5986;4.60784
28.6048;3.86275
28.6111;4.70588
28.6173;4.41176
28.6236;3.54902
28.6298;4.11765
28.6361;4.23529
28.6423;3.19608
28.6485;3.5098
28.6547;4.01961
28.6609;3.19608
28.667;3.43137
28.6732;3.78431
28.6794;3.07843
28.6855;2.84314
28.6917;3.54902
28.6979;2.78431
28.704;2.94118
28.7102;3.41176
28.7163;2.98039
28.7225;2.43137
28.7287;3.37255
28.7348;2.98039
28.741;2.60784
28.7472;3.29412
28.7533;2.86275
28.7595;2.27451
28.7657;3.23529
28.7718;3
28.778;2.19608
28.7842;3.27451
28.7903;2.86275
28.7965;2.23529
28.8027;2.80392
28.8088;3.11765
28.815;2.47059
28.8211;2.90196
28.8273;3.21569
28.8335;2.80392
28.8396;2.45098
28.8458;3.13725
28.852;3.11765
28.8581;2.03922
28.8643;2.90196
28.8705;3.2549
28.8766;2.43137
28.8828;2.7451
28.889;3.21569
28.8951;2.62745
28.9013;2.13725
28.9074;3.07843
28.9136;2.72549
28.9198;2.01961
28.9259;2.72549
28.9321;2.72549
28.9383;1.84314
28.9444;1.94118
28.9506;2.2549
28.9568;1.80392
28.9629;1.43137
28.9691;2.29412
28.9753;2.11765
28.9814;1.4902
28.9876;2.47059
28.9938;2.7451
28.9999;1.90196
29.0061;2.58824
29.0122;3.15686
29.0184;2.72549
29.0246;3
29.0307;3.2549
29.0369;2.54902
29.0431;2.58824
29.0492;3.27451
29.0554;2.70588
29.0616;2.27451
29.0677;3.23529
29.0739;2.90196
29.0801;2.58824
29.0862;3.27451
29.0924;2.66667
29.0985;1.01961
29.1047;0.666667
29.1109;0
29.117;0.0196078
29.1232;0.333333
29.1294;1.21569
29.1355;1.80392
29.1417;3.11765
29.1479;3.56863
29.154;2.43137
29.1602;3.31373
29.1664;3.35294
29.1725;2.5098
29.1787;2.92157
29.1849;3.43137
29.191;2.68627
29.1972;2.84314
29.2033;3.09804
29.2095;2.23529
29.2157;2.37255
29.2218;2.98039
29.228;2.31373
29.2342;1.88235
29.2403;2.68627
29.2465;2
29.2527;1.76471
29.2588;2.56863
29.265;2.09804
29.2712;1.37255
29.2774;2.33333
29.2836;1.60784
29.2898;1.07843
29.296;1.82353
29.3022;1.41176
29.3085;0.294118
29.3147;1.13725
29.3209;1.2549
29.3271;0.431373
29.3333;0.588235
29.3396;1.27451
29.3458;0.666667
29.352;0.392157
29.3582;1.4902
29.3644;1.31373
29.3706;0.745098
29.3769;1.84314
29.3831;2.2549
29.3893;1.96078
29.3955;2.54902
29.4017;3.35294
29.408;3.13725
29.4142;3.05882
29.4204;4.05882
29.4266;3.90196
29.4328;3.27451
29.439;4.03922
29.4453;4.23529
29.4515;3.4902
29.4577;3.62745
29.4639;4.31373
29.4701;3.41176
29.4763;3.03922
29.4826;3.84314
29.4888;3.56863
29.495;2.70588
29.5012;3.41176
29.5074;3.56863
29.5137;2.70588
29.5199;3.01961
29.5261;3.19608
29.5323;2.41176
29.5385;2.96078
29.5447;3.21569
29.551;2.39216
29.5572;2.45098
29.5634;3.15686
29.5696;2.13725
29.5758;2.54902
29.5821;2.7451
29.5883;2.31373
29.5944;2.03922
29.6006;3.01961
29.6067;2.64706
29.6129;2.43137
29.6191;2.88235
29.6252;2.52941
29.6314;2.09804
29.6375;2.84314
29.6437;2.76471
29.6498;1.98039
29.656;2.88235
29.6622;2.56863
29.6683;2.03922
29.6745;2.98039
29.6806;2.92157
29.6868;2.09804
29.6929;2.54902
29.6991;2.76471
29.7053;1.96078
29.7114;2.76471
29.7176;2.96078
29.7237;2.2549
29.7299;2.35294
29.736;2.96078
29.7422;1.7451
29.7484;2.45098
29.7545;2.80392
29.7607;2.23529
29.7668;2.19608
29.773;2.92157
29.7791;2.31373
29.7853;1.94118
29.7915;1.98039
29.7976;1.56863
29.8038;1.45098
29.8099;2.60784
29.8161;2.23529
29.8222;1.86275
29.8284;2.29412
29.8345;2.78431
29.8407;1.86275
29.8469;2.68627
29.853;3.31373
29.8592;2.86275
29.8653;2.66667
29.8715;3.47059
29.8776;2.92157
29.8838;2.43137
29.89;3.29412
29.8961;3.15686
29.9023;2.4902
29.9085;2.82353
29.9147;3.33333
29.9209;2.58824
29.9271;2.41176
29.9333;3.54902
29.9395;2.72549
29.9457;1.15686
29.9519;0.627451
29.9581;0
29.9643;0
29.9705;0.0784314
29.9767;0.0784314
29.9829;1.09804
29.9891;1.90196
29.9953;3.41176
30.0015;3.11765
30.0077;2.56863
30.0139;3.5098
30.0201;3.45098
30.0264;2.41176
30.0326;3.54902
30.0388;3.37255
30.045;2.4902
30.0512;2.96078
30.0574;3.07843
30.0636;2.29412
30.0698;2.92157
30.076;2.78431
30.0822;2.09804
30.0884;2.37255
30.0946;2.82353
30.1008;2.03922
30.107;1.70588
30.1132;2.43137
30.1194;1.58824
30.1256;1.62745
30.1318;2.27451
30.138;1.54902
30.1442;0.941176
30.1504;1.88235
30.1566;1.03922
30.1628;0.823529
30.169;1.43137
30.1752;0.960784
30.1814;0.352941
30.1876;1.23529
30.1938;1.05882
30.2;0.45098
30.2062;1.4902
30.2124;1.37255
30.2187;0.921569
30.2249;1.94118
30.2311;2.39216
30.2373;1.96078
30.2436;3.15686
30.2498;3.43137
30.256;2.86275
30.2622;3.66667
30.2685;4.37255
30.2747;3.80392
30.2809;3.47059
30.2871;4.35294
30.2934;3.64706
30.2996;3.80392
30.3058;4.45098
30.312;3.5098
30.3183;3.07843
30.3245;4.07843
30.3307;3.86275
30.3369;2.76471
30.3432;3.62745
30.3494;3.72549
30.3556;3.05882
30.3618;3.15686
30.3681;3.19608
30.3743;2.92157
30.3805;2.58824
30.3867;3.45098
30.393;3.13725
30.3992;2.21569
30.4054;3.07843
30.4117;3.17647
30.4179;2.35294
30.4241;2.58824
30.4303;3.19608
30.4366;2.60784
30.4428;2.27451
30.449;3.13725
30.4552;2.78431
30.4615;2.15686
30.4677;3.05882
30.4739;3.13725
30.4801;2.11765
30.4864;3.29412
30.4926;2.98039
30.4988;2.33333
30.505;3.11765
30.5113;3.5098
30.5175;3.03922
30.5237;3.35294
30.5299;3.56863
30.5361;2.39216
30.5423;2.96078
30.5485;3.29412
30.5547;2.5098
30.5609;2.35294
30.5671;3.23529
30.5733;2.45098
30.5795;2.58824
30.5857;3.05882
30.5919;2.60784
30.5981;2.11765
30.6043;3.09804
30.6105;2.43137
30.6167;2.2549
30.6228;2.98039
30.629;2.56863
30.6352;1.72549
30.6414;2.17647
30.6476;2.03922
30.6538;1.2549
30.66;2.07843
30.6662;2.11765
30.6724;1.19608
30.6786;2.09804
30.6848;2.43137
30.691;1.62745
30.6972;2.98039
30.7034;3
30.7096;2.29412
30.7158;2.76471
30.722;3.05882
30.7282;2.52941
30.7344;2.39216
30.7406;3
30.7467;2.21569
30.7529;2.52941
30.7591;3.03922
30.7653;2.39216
30.7715;2
30.7777;3.13725
30.7839;2.80392
30.7901;1.58824
30.7963;1.29412
30.8025;0
30.8087;0
30.8149;0.0588235
30.8211;0.0588235
30.8273;0.196078
30.8335;1.21569
30.8397;3.07843
30.8459;3.09804
30.8521;2.39216
30.8582;3.23529
30.8644;3.39216
30.8706;2.64706
30.8768;2.94118
30.883;3.19608
30.8892;2.92157
30.8954;2.58824
30.9016;3.4902
30.9077;2.90196
30.9139;2.33333
30.9201;3.21569
30.9263;3.03922
30.9325;2.11765
30.9387;2.33333
30.9449;2.78431
30.9511;2.19608
30.9572;2.03922
30.9634;2.60784
30.9696;2.17647
30.9758;1.47059
30.982;2.31373
30.9882;1.86275
30.9944;1.23529
31.0006;1.96078
31.0067;1.7451
31.0129;0.941176
31.0191;1.4902
31.0253;1.23529
31.0315;0.431373
31.0377;1.21569
31.0439;1.27451
31.0501;0.313726
31.0562;0.882353
31.0624;1.54902
31.0686;0.980392
31.0748;2
31.081;2.43137
31.0872;2.39216
31.0934;2.45098
31.0996;3.33333
31.1057;3.2549
31.1119;3.80392
31.1181;4.23529
31.1243;3.88235
31.1305;3.72549
31.1367;4.43137
31.1429;4.03922
31.1491;3.45098
31.1552;4.54902
31.1615;3.96078
31.1677;3.37255
31.1739;4.21569
31.1801;3.88235
31.1863;3.05882
31.1925;3.72549
31.1988;3.45098
31.205;3.05882
31.2112;3.78431
31.2174;3.64706
31.2236;2.82353
31.2299;3.33333
31.2361;3.56863
31.2423;2.45098
31.2485;3.05882
31.2547;3.31373
31.2609;2.45098
31.2672;2.62745
31.2734;3.05882
31.2796;2.43137
31.2858;2.15686
31.292;3.01961
31.2983;2.43137
31.3045;2
31.3107;2.78431
31.3169;3.07843
31.3231;2.33333
31.3293;2.78431
31.3356;3.21569
31.3418;2.58824
31.348;2.4902
31.3542;3.19608
31.3604;2.68627
31.3666;2.01961
31.3729;2.62745
31.3791;2.92157
31.3853;2.05882
31.3915;2.52941
31.3977;2.86275
31.404;2.23529
31.4102;2.17647
31.4164;2.98039
31.4226;2.66667
31.4288;1.66667
31.435;2.31373
31.4413;2.58824
31.4475;1.62745
31.4537;2.05882
31.4599;2.5098
31.4661;1.76471
31.4723;1.33333
31.4785;2.2549
31.4846;1.62745
31.4908;2.13725
31.4969;2.56863
31.5031;2.09804
31.5092;1.29412
31.5154;1.94118
31.5215;1.84314
31.5277;1.60784
31.5338;2.21569
31.54;2.05882
31.5461;1.5098
31.5523;2.45098
31.5584;2.76471
31.5646;2.07843
31.5707;3.43137
31.5769;2.96078
31.583;2.37255
31.5892;2.86275
31.5953;3.03922
31.6015;2.41176
31.6076;2.5098
31.6138;3.15686
31.6199;2.43137
31.6261;2.80392
31.6322;3.05882
31.6384;2.64706
31.6445;2.4902
31.6507;3.4902
31.6568;1.78431
31.6629;0.882353
31.6691;0.0588235
31.6752;0
31.6814;0
31.6875;0.176471
31.6937;0.470588
31.6998;1.90196
31.706;3.2549
31.7121;3.07843
31.7183;2.31373
31.7244;3.17647
31.7306;3.31373
31.7367;2.39216
31.7429;3.5098
31.749;2.88235
31.7552;2.01961
31.7613;2.86275
31.7675;2.98039
31.7736;2.09804
31.7798;2.27451
31.786;2.62745
31.7923;2.11765
31.7985;1.7451
31.8047;2.45098
31.811;2.11765
31.8172;1.35294
31.8235;2.23529
31.8297;2.27451
31.836;1.33333
31.8422;1.4902
31.8484;2.17647
31.8547;1.33333
31.8609;0.941176
31.8672;1.62745
31.8734;1.23529
31.8796;0.490196
31.8859;1.29412
31.8921;1.31373
31.8984;0.411765
31.9046;0.862745
31.9108;0.901961
31.9171;0.784314
31.9233;0.588235
31.9296;1.56863
31.9358;1.41176
31.942;1.07843
31.9483;2.13725
31.9545;1.66667
31.9608;1.31373
31.967;2.96078
31.9733;3.05882
31.9795;2.31373
31.9857;3.52941
31.992;3.4902
31.9982;3.01961
32.0045;3.88235
32.0107;3.96078
32.0169;3.13725
32.0232;3.70588
32.0294;3.76471
32.0357;3.01961
32.0419;3.41176
32.0481;3.33333
32.0544;2.5098
32.0606;2.62745
32.0669;3.33333
32.0731;2.43137
32.0793;2.80392
32.0856;3.15686
32.0918;2.64706
32.098;2.33333
32.1043;2.98039
32.1105;2.54902
32.1167;2.43137
32.1229;3
32.1291;2.39216
32.1353;2.13725
32.1415;3
32.1477;2.52941
32.1539;2
32.1601;2.88235
32.1663;2.31373
32.1725;1.52941
32.1787;2.76471
32.1849;2.66667
32.1911;1.76471
32.1973;2.37255
32.2035;2.60784
32.2097;1.92157
32.2159;2.58824
32.2221;2.88235
32.2283;2.05882
32.2345;2.41176
32.2407;2.90196
32.2469;2.13725
32.2531;2.01961
32.2593;3.05882
32.2655;2.90196
32.2717;2.21569
32.2779;3.03922
32.2841;2.98039
32.2903;2.11765
32.2965;2.43137
32.3027;2.90196
32.3089;2.41176
32.3151;2.13725
32.3213;2.86275
32.3275;2.68627
32.3338;2.09804
32.34;2.92157
32.3462;3
32.3524;1.98039
32.3586;2.29412
32.3648;2.58824
32.371;1.70588
32.3772;1.29412
32.3834;2.2549
32.3896;2.03922
32.3958;1.52941
32.402;2.33333
32.4082;2.62745
32.4143;1.84314
32.4205;2.4902
32.4266;3.19608
32.4328;2.7451
32.4389;2.58824
32.445;3.43137
32.4512;2.45098
32.4573;2.82353
32.4635;3.37255
32.4696;2.98039
32.4757;2.54902
32.4819;3.29412
32.488;2.82353
32.4942;2.4902
32.5003;3.41176
32.5065;3.27451
32.5126;2.84314
32.5187;2.80392
32.5249;1.78431
32.531;0.0196078
32.5372;0.0980392
32.5433;0
32.5494;0.117647
32.5556;2.21569
32.5617;3.45098
32.5679;3.39216
32.574;3.88235
32.5802;3.78431
32.5863;3.21569
32.5924;3.23529
32.5986;3.5098
32.6047;2.92157
32.6109;2.80392
32.617;3.41176
32.6231;2.39216
32.6293;2.64706
32.6354;3.21569
32.6416;2.88235
32.6477;2.21569
32.6539;3.15686
32.66;2.2549
32.6661;2.11765
32.6723;2.86275
32.6784;2.29412
32.6846;1.62745
32.6907;2.70588
32.6968;2.41176
32.703;1.60784
32.7091;2.52941
32.7153;1.88235
32.7214;1.03922
32.7276;1.80392
32.7339;1.76471
32.7401;0.862745
32.7464;1.2549
32.7526;1.56863
32.7589;1.05882
32.7651;0.666667
32.7713;1.76471
32.7776;1.35294
32.7838;0.72549
32.7901;1.70588
32.7963;2
32.8025;1.31373
32.8088;1.96078
32.815;3.09804
32.8213;2.84314
32.8275;2.78431
32.8337;3.98039
32.84;3.76471
32.8462;3.37255
32.8525;4.41176
32.8587;4.45098
32.8649;3.7451
32.8712;4.13725
32.8774;4.68627
32.8837;3.98039
32.8899;3.80392
32.8962;4.47059
32.9024;4.01961
32.9086;3.11765
32.9149;3.96078
32.9211;4.01961
32.9274;2.90196
32.9336;3.13725
32.9398;3.56863
32.9461;2.76471
32.9523;3.33333
32.9586;3.54902
32.9648;2.60784
32.971;2.80392
32.9773;3.41176
32.9835;3.07843
32.9898;2.94118
32.996;3.4902
33.0022;2.76471
33.0085;2.60784
33.0147;3.37255
33.021;3.19608
33.0272;2.35294
33.0335;3.43137
33.0397;2.94118
33.0459;2.37255
33.052;3.47059
33.0582;3.35294
33.0644;2.52941
33.0706;3.11765
33.0767;2.76471
33.0829;2.27451
33.0891;3.33333
33.0952;3.23529
33.1014;2.11765
33.1076;2.76471
33.1138;3.11765
33.1199;2.19608
33.1261;2.94118
33.1323;3.07843
33.1384;2.43137
33.1446;2.62745
33.1508;2.80392
33.157;2.60784
33.1631;2.90196
33.1693;3.29412
33.1755;2.23529
33.1817;2.19608
33.1878;2.70588
33.194;2.19608
33.2002;1.23529
33.2063;1.96078
33.2125;1.90196
33.2187;1.33333
33.2249;1.80392
33.231;2.2549
33.2372;1.68627
33.2434;1.66667
33.2495;2.60784
33.2557;2.43137
33.2619;1.92157
33.2681;2.90196
33.2742;2.86275
33.2804;1.98039
33.2866;2.60784
33.2928;2.86275
33.2989;2.09804
33.3051;2
33.3113;2.76471
33.3174;2.70588
33.3236;1.88235
33.3298;2.86275
33.336;2.7451
33.3421;2.13725
33.3483;2.56863
33.3545;1.90196
33.3606;0.0392157
33.3668;0.0196078
33.3729;0.137255
33.379;0.0196078
33.3852;0.215686
33.3913;2.13725
33.3975;2.98039
33.4036;2.62745
33.4097;3.45098
33.4159;2.80392
33.422;2.31373
33.4282;2.92157
33.4343;3.11765
33.4405;2.29412
33.4466;2.86275
33.4527;2.60784
33.4589;1.92157
33.465;2.39216
33.4712;2.62745
33.4773;1.88235
33.4834;1.86275
33.4896;2.35294
33.4957;1.45098
33.5019;2
33.508;2.27451
33.5142;1.31373
33.5203;1.23529
33.5264;2.17647
33.5326;1.15686
33.5387;1.11765
33.5449;1.70588
33.551;1.09804
33.5571;0.666667
33.5633;1.66667
33.5694;1.07843
33.5756;0.313726
33.5817;1.07843
33.5879;0.627451
33.594;0.215686
33.6001;1.03922
33.6063;0.921569
33.6124;0.372549
33.6186;1.5098
33.6247;1.64706
33.6308;0.823529
33.637;2.03922
33.6431;2.4902
33.6493;2.01961
33.6554;2.60784
33.6616;3.23529
33.6677;2.41176
33.6739;3.01961
33.6802;3.64706
33.6864;2.98039
33.6927;3.17647
33.6989;3.66667
33.7051;3.2549
33.7114;2.52941
33.7176;3.52941
33.7239;3.27451
33.7301;2.45098
33.7363;3.03922
33.7426;3.29412
33.7488;2.62745
33.7551;2.4902
33.7613;3.09804
33.7676;2.27451
33.7738;2.17647
33.78;3.03922
33.7863;2.70588
33.7925;2.01961
33.7988;2.70588
33.805;3
33.8112;2.21569
33.8175;2.09804
33.8237;3.01961
33.83;2.45098
33.8362;1.94118
33.8424;2.88235
33.8487;2.64706
33.8549;1.80392
33.8612;2.62745
33.8674;2.92157
33.8736;2.21569
33.8799;2.33333
33.8861;2.94118
33.8924;2.2549
33.8986;1.90196
33.9049;2.82353
33.9111;2.21569
33.9173;2.21569
33.9236;3
33.9298;2.64706
33.9361;1.86275
33.9423;2.80392
33.9485;2.19608
33.9548;1.56863
33.961;2.82353
33.9673;2.5098
33.9735;1.76471
33.9797;2.37255
33.9859;2.35294
33.9921;0.882353
33.9983;1.94118
34.0044;1.92157
34.0106;1.19608
34.0168;1.72549
34.0229;1.96078
34.0291;1.54902
34.0353;2.39216
34.0414;2.88235
34.0476;2.19608
34.0538;2.37255
34.0599;3
34.0661;2.58824
34.0722;2.05882
34.0784;3.13725
34.0846;2.21569
34.0907;2.17647
34.0969;3.11765
34.1031;2.76471
34.1092;1.98039
34.1154;3.09804
34.1216;2.72549
34.1277;1.64706
34.1339;1.19608
34.1401;0
34.1462;0.0196078
34.1524;0.0588235
34.1586;0.0392157
34.1647;0.745098
34.1709;3.11765
34.177;3.58824
34.1832;2.80392
34.1894;3.35294
34.1955;3.56863
34.2017;2.90196
34.2079;2.94118
34.214;3.60784
34.2202;3.13725
34.2264;2.5098
34.2325;3.47059
34.2387;3.45098
34.2449;2.17647
34.251;2.84314
34.2572;3.15686
34.2633;2.37255
34.2695;2.45098
34.2757;2.98039
34.2818;2.39216
34.288;1.52941
34.2942;2.4902
34.3004;2.31373
34.3066;1.37255
34.3128;2.07843
34.319;2.13725
34.3252;1.4902
34.3314;1.62745
34.3376;1.88235
34.3438;1.41176
34.35;0.921569
34.3562;1.54902
34.3624;1.43137
34.3686;0.392157
34.3748;0.980392
34.381;1.29412
34.3872;0.529412
34.3934;1.01961
34.3996;1.60784
34.4058;1.15686
34.412;1.54902
34.4182;2.21569
34.4244;1.80392
34.4306;1.82353
34.4368;3.19608
34.443;3.09804
34.4492;2.88235
34.4554;3.80392
34.4616;3.35294
34.4678;3.05882
34.474;4.01961
34.4803;3.52941
34.4865;2.92157
34.4927;3.92157
34.4989;3.33333
34.5051;2.62745
34.5113;3.56863
34.5175;3.5098
34.5237;2.64706
34.5299;3.11765
34.5361;3.21569
34.5423;2.2549
34.5485;2.96078
34.5547;3.23529
34.5609;2.33333
34.5671;2.31373
34.5733;2.90196
34.5795;1.94118
34.5857;2.64706
34.5919;2.84314
34.5981;2.05882
34.6043;2.07843
34.6105;2.78431
34.6167;2.41176
34.6229;2.41176
34.6291;2.66667
34.6353;2.29412
34.6415;1.58824
34.6477;2.58824
34.6539;2.4902
34.6601;1.68627
34.6663;2.88235
34.6725;2.43137
34.6787;1.60784
34.6848;2.41176
34.691;2.2549
34.6972;1.45098
34.7034;2.05882
34.7096;2.43137
34.7158;1.56863
34.722;1.39216
34.7282;1.86275
34.7344;1.39216
34.7406;1.05882
34.7468;2.15686
34.753;1.84314
34.7592;1.66667
34.7654;2.52941
34.7716;2.66667
34.7778;2.21569
34.784;2.45098
34.7902;2.86275
34.7964;2.41176
34.8026;2.03922
34.8088;2.82353
34.8149;2.92157
34.8211;1.70588
34.8273;2.7451
34.8335;2.98039
34.8397;2.09804
34.8459;2.2549
34.8521;3.01961
34.8583;2.21569
34.8645;2.47059
34.8707;2.11765
34.8769;0.333333
34.8831;0.0196078
34.8893;0.0588235
34.8955;0.0392157
34.9017;0.941176
34.9079;2.70588
34.9141;2.98039
34.9203;2.84314
34.9264;3.58824
34.9326;3.01961
34.9388;2.17647
34.945;3.15686
34.9512;2.72549
34.9573;1.96078
34.9635;2.82353
34.9697;2.64706
34.9759;1.78431
34.9821;2.13725
34.9882;2.15686
34.9944;1.45098
35.0006;2.13725
35.0068;2.19608
35.013;1.47059
35.0191;1.52941
35.0253;1.88235
35.0315;0.862745
35.0377;1.31373
35.0439;1.62745
35.05;0.941176
35.0562;0.882353
35.0624;1.58824
35.0686;0.921569
35.0748;0.862745
35.0809;1.41176
35.0871;0.529412
35.0933;0.254902
35.0995;1.11765
35.1057;0.862745
35.1118;0.137255
35.118;1.21569
35.1242;1.01961
35.1304;0.588235
35.1366;1.78431
35.1427;1.88235
35.1489;1.33333
35.1551;2.54902
35.1613;2.88235
35.1675;2.29412
35.1736;2.84314
35.1798;3.80392
35.186;3.41176
35.1922;3.05882
35.1984;3.98039
35.2045;3.76471
35.2107;3.09804
35.2169;3.68627
35.2231;3.80392
35.2293;3
35.2354;2.96078
35.2417;3.62745
35.2479;3.09804
35.2541;2.4902
35.2603;3.37255
35.2665;3.03922
35.2727;2.33333
35.279;2.90196
35.2852;3.2549
35.2914;2.52941
35.2976;2.41176
35.3038;3.19608
35.3101;2.58824
35.3163;2.01961
35.3225;2.98039
35.3287;2.76471
35.3349;1.96078
35.3411;2.82353
35.3474;2.88235
35.3536;2.2549
35.3598;2.80392
35.366;2.90196
35.3722;1.66667
35.3785;2.47059
35.3847;2.80392
35.3909;2.13725
35.3971;2.17647
35.4033;2.76471
35.4095;1.96078
35.4158;2.19608
35.422;2.86275
35.4282;2.45098
35.4344;1.7451
35.4406;2.86275
35.4468;2.19608
35.4531;2.01961
35.4593;2.52941
35.4655;1.78431
35.4717;1.19608
35.4779;1.86275
35.4842;1.96078
35.4904;1.52941
35.4966;2.68627
35.5028;2.09804
35.509;1.41176
35.5152;2.66667
35.5215;2.86275
35.5277;2.33333
35.5339;3.09804
35.5401;3.05882
35.5463;1.90196
35.5526;2.54902
35.5588;2.84314
35.565;2.35294
35.5712;2.35294
35.5775;2.92157
35.5837;2.11765
35.5899;2.68627
35.5961;3.35294
35.6024;1.84314
35.6086;0.509804
35.6148;0.254902
35.621;0.0196078
35.6273;0.0196078
35.6335;0.529412
35.6397;1.21569
35.6459;2
35.6522;3.21569
35.6584;3.21569
35.6646;2.23529
35.6708;2.82353
35.6771;3.35294
35.6833;2.66667
35.6895;2.4902
35.6957;3
35.702;2.7451
35.7082;2.07843
35.7144;3.03922
35.7206;2.78431
35.7269;1.84314
35.7331;2.4902
35.7393;2.70588
35.7456;1.76471
35.7518;2.07843
35.758;2.56863
35.7642;2.23529
35.7705;1.56863
35.7767;2.29412
35.7829;1.82353
35.7891;1.23529
35.7954;1.94118
35.8016;1.90196
35.8078;1.19608
35.814;1.15686
35.8203;1.66667
35.8265;1.07843
35.8327;0.509804
35.8389;1.45098
35.8452;1.35294
35.8514;0.313726
35.8576;1.15686
35.8638;1.23529
35.87;0.45098
35.8762;1.54902
35.8823;1.64706
35.8885;0.960784
35.8946;1.80392
35.9008;2.54902
35.9069;1.76471
35.9131;3.01961
35.9193;3.21569
35.9254;2.72549
35.9316;3.01961
35.9377;3.96078
35.9439;3.5098
35.95;3.5098
35.9562;3.86275
35.9623;3.07843
35.9685;3.01961
35.9747;4
35.9808;3.62745
35.987;2.56863
35.9931;3.58824
35.9993;3.01961
36.0054;2.68627
36.0116;3.43137
36.0178;3.2549
36.0239;2.39216
36.0301;3.2549
36.0362;2.92157
36.0424;2.47059
36.0485;3.27451
36.0547;3.15686
36.0609;2.33333
36.067;2.90196
36.0732;3.23529
36.0793;2.11765
36.0855;3.01961
36.0916;3.21569
36.0978;2.2549
36.104;2.62745
36.1101;3.2549
36.1163;2.52941
36.1224;2.72549
36.1286;2.88235
36.1347;2.54902
36.1409;2.39216
36.1471;3.07843
36.1532;2.54902
36.1594;1.98039
36.1655;2.84314
36.1717;2.68627
36.1778;1.84314
36.1841;2.47059
36.1903;3
36.1965;2.01961
36.2027;1.96078
36.2089;2.11765
36.2151;1.66667
36.2213;1.11765
36.2275;2.09804
36.2337;1.98039
36.2399;1.43137
36.2462;2.01961
36.2524;2.5098
36.2586;2.19608
36.2648;2.39216
36.271;3.15686
36.2772;2.37255
36.2834;2.07843
36.2896;2.90196
36.2958;2.78431
36.302;2.17647
36.3083;2.7451
36.3145;2.98039
36.3207;2.05882
36.3269;2.86275
36.3331;2.98039
36.3393;2.05882
36.3455;2.60784
36.3517;2.58824
36.3579;1.21569
36.3642;0.196078
36.3704;0.235294
36.3766;0
36.3828;0.27451
36.389;1.52941
36.3952;2.2549
36.4014;2.29412
36.4076;3.41176
36.4138;2.60784
36.42;2.5098
36.4263;3.29412
36.4325;2.96078
36.4387;2.37255
36.4449;3.21569
36.4511;2.64706
36.4573;1.88235
36.4635;2.98039
36.4697;2.5098
36.4759;1.68627
36.4821;2.27451
36.4884;2.58824
36.4946;1.47059
36.5008;2.4902
36.507;2.27451
36.5133;1.47059
36.5195;2.15686
36.5257;2.39216
36.5319;1.62745
36.5382;1.80392
36.5444;1.94118
36.5506;0.941176
36.5568;1.17647
36.5631;1.70588
36.5693;0.980392
36.5755;0.607843
36.5817;1.52941
36.588;0.941176
36.5942;1.11765
36.6004;1.64706
36.6066;1.09804
36.6129;0.862745
36.6191;2.05882
36.6253;1.98039
36.6315;1.29412
36.6378;2.09804
36.644;2.70588
36.6502;2.33333
36.6564;2.56863
36.6627;3.62745
36.6689;3.31373
36.6751;3.05882
36.6813;4.01961
36.6876;3.80392
36.6938;3.15686
36.7;3.84314
36.7062;4.17647
36.7125;3.4902
36.7187;3.29412
36.7249;3.58824
36.7311;3.33333
36.7374;2.84314
36.7436;3.76471
36.7498;3.31373
36.7561;2.52941
36.7623;3.39216
36.7685;3.60784
36.7747;2.78431
36.781;2.82353
36.7872;3.4902
36.7934;2.96078
36.7996;2.60784
36.8059;3.43137
36.812;3.21569
36.8182;2.19608
36.8243;3.13725
36.8305;2.98039
36.8366;2.35294
36.8428;3.03922
36.849;3.21569
36.8551;2.43137
36.8613;2.82353
36.8674;2.92157
36.8736;2.31373
36.8797;2.94118
36.8859;3.23529
36.8921;2.4902
36.8982;2.68627
36.9044;3.47059
36.9105;2.35294
36.9167;2.94118
36.9228;3.2549
36.929;2.58824
36.9352;2.72549
36.9413;3.41176
36.9475;2.86275
36.9536;2.68627
36.9598;2.92157
36.9659;2.11765
36.9721;1.60784
36.9782;2.45098
36.9844;2.2549
36.9906;1.23529
36.9967;2.62745
37.0029;2.33333
37.009;1.88235
37.0152;3.39216
37.0213;3.19608
37.0275;2.43137
37.0337;3.15686
37.0398;3.19608
37.046;2.37255
37.0521;3.31373
37.0583;3.45098
37.0644;2.62745
37.0706;2.88235
37.0768;3.45098
37.0829;2.35294
37.0891;2.94118
37.0952;3.4902
37.1014;2.2549
37.1075;1.60784
37.1137;1.09804
37.1199;0
37.1261;0.0392157
37.1324;0.176471
37.1386;0.372549
37.1449;1.17647
37.1511;3.05882
37.1573;3.70588
37.1636;3.03922
37.1698;2.94118
37.1761;3.5098
37.1823;3.19608
37.1885;2.70588
37.1948;3.52941
37.201;3.2549
37.2073;2.29412
37.2135;2.96078
37.2198;3.29412
37.226;2.45098
37.2322;2.31373
37.2385;3.11765
37.2447;2.4902
37.251;2.29412
37.2572;3.01961
37.2634;2.4902
37.2697;1.82353
37.2759;2.5098
37.2822;2.58824
37.2884;1.76471
37.2946;1.76471
37.3009;2.35294
37.3071;1.7451
37.3134;1.27451
37.3196;2.11765
37.3258;1.19608
37.3321;1.03922
37.3383;1.92157
37.3446;1.41176
37.3508;0.666667
37.3571;1.72549
37.3633;1.56863
37.3695;0.980392
37.3758;1.80392
37.382;1.82353
37.3883;1.17647
37.3945;2.09804
37.4007;2.54902
37.407;2.19608
37.4132;3.29412
37.4195;3.45098
37.4257;2.78431
37.4319;3.56863
37.4381;3.94118
37.4443;3.5098
37.4504;3.45098
37.4566;3.90196
37.4628;3.35294
37.4689;3.45098
37.4751;3.98039
37.4813;3.52941
37.4874;3.07843
37.4936;3.88235
37.4998;3.07843
37.5059;3.05882
37.5121;3.86275
37.5182;3.37255
37.5244;2.58824
37.5306;3.66667
37.5367;3.4902
37.5429;2.70588
37.5491;3.45098
37.5552;3.15686
37.5614;2.54902
37.5676;3.43137
37.5737;3.37255
37.5799;2.5098
37.5861;3.37255
37.5922;3.2549
37.5984;2.68627
37.6045;3.17647
37.6107;3.43137
37.6169;2.7451
37.623;2.86275
37.6292;3.41176
37.6354;3.21569
37.6415;2.52941
37.6477;3.33333
37.6539;3.33333
37.66;2.4902
37.6662;3.01961
37.6724;3.27451
37.6785;2.56863
37.6847;2.64706
37.6909;3.17647
37.697;2.47059
37.7032;1.52941
37.7093;2.21569
37.7155;2.17647
37.7217;1.52941
37.7278;2.27451
37.734;2.2549
37.7402;1.78431
37.7463;2.05882
37.7525;2.92157
37.7587;2.5098
37.7648;2.07843
37.771;3.17647
37.7772;2.43137
37.7833;2.39216
37.7895;3.15686
37.7957;2.56863
37.8018;1.94118
37.808;2.92157
37.8141;2.96078
37.8203;2.17647
37.8265;3.19608
37.8326;3.03922
37.8388;2.17647
37.845;2.09804
37.8511;1.31373
37.8573;0.0196078
37.8635;0.0392157
37.8696;0
37.8758;0.117647
37.882;1.92157
37.8881;3.23529
37.8943;2.96078
37.9004;2.78431
37.9066;3.52941
37.9128;2.43137
37.9189;2.90196
37.9251;3.33333
37.9313;2.84314
37.9374;2.5098
37.9436;3.29412
37.9498;2.37255
37.9559;2.31373
37.9621;2.94118
37.9683;2.4902
37.9744;1.82353
37.9806;2.58824
37.9868;2.39216
37.9929;1.68627
37.9991;2.31373
38.0052;1.94118
38.0114;0.960784
38.0176;1.92157
38.0237;1.98039
38.0299;1.11765
38.0361;1.78431
38.0422;1.54902
38.0484;0.54902
38.0546;1.11765
38.0608;1.31373
38.067;0.607843
38.0733;0.666667
38.0795;1.29412
38.0858;0.72549
38.0921;0.294118
38.0983;1.47059
38.1046;1.35294
38.1108;0.862745
38.1171;1.47059
38.1233;2.15686
38.1296;1.7451
38.1358;2.21569
38.1421;3.13725
38.1484;2.84314
38.1546;2.62745
38.1609;3.98039
38.1671;3.88235
38.1734;3.05882
38.1796;3.88235
38.1859;4.13725
38.1922;3.4902
38.1984;3.43137
38.2047;3.98039
38.2109;3.54902
38.2172;2.86275
38.2234;3.80392
38.2297;3.56863
38.2359;2.68627
38.2422;3.35294
38.2485;3.47059
38.2547;2.41176
38.261;2.88235
38.2672;3.37255
38.2735;2.86275
38.2797;2.86275
38.286;3.19608
38.2922;2.56863
38.2985;2.35294
38.3048;3.23529
38.311;2.68627
38.3173;2.21569
38.3235;2.88235
38.3298;2.56863
38.336;2.19608
38.3423;3.31373
38.3486;2.90196
38.3548;2.05882
38.3611;2.90196
38.3673;2.64706
38.3736;2.11765
38.3798;3.37255
38.386;3.11765
38.3922;2.19608
38.3983;2.64706
38.4045;3.19608
38.4107;1.98039
38.4169;2.76471
38.4231;2.68627
38.4292;1.52941
38.4354;1.76471
38.4416;2.19608
38.4478;1.7451
38.454;2.17647
38.4601;2.41176
38.4663;1.78431
38.4725;1.96078
38.4787;2.86275
38.4849;2.54902
38.491;2.39216
38.4972;3
38.5034;2.84314
38.5096;2.35294
38.5158;3.13725
38.5219;3
38.5281;2.15686
38.5343;3.09804
38.5405;2.45098
38.5466;2.4902
38.5528;3.23529
38.559;3.19608
38.5652;2.03922
38.5714;1.66667
38.5775;0.803922
38.5837;0
38.5899;0.0196078
38.5961;0.0392157
38.6023;0.117647
38.6084;0.862745
38.6146;3.07843
38.6208;3.68627
38.627;2.70588
38.6332;3.33333
38.6393;3.47059
38.6455;2.66667
38.6517;2.68627
38.6579;3.4902
38.6641;2.88235
38.6702;2.5098
38.6764;3.2549
38.6826;3.07843
38.6888;2.03922
38.695;2.82353
38.7011;2.96078
38.7073;2.03922
38.7135;2.19608
38.7196;2.90196
38.7258;2.19608
38.732;1.80392
38.7382;2.4902
38.7443;2.31373
38.7505;1.5098
38.7567;2.19608
38.7629;2.23529
38.769;1.43137
38.7752;1.47059
38.7814;1.86275
38.7875;1
38.7937;1.58824
38.7999;1.7451
38.8061;1.19608
38.8122;0.901961
38.8184;1.66667
38.8246;0.941176
38.8307;1
38.8369;2.07843
38.8431;1.70588
38.8493;1.47059
38.8554;2.47059
38.8616;2.45098
38.8678;2.5098
38.874;3.64706
38.8801;3.31373
38.8863;2.92157
38.8925;3.98039
38.8986;4.03922
38.9048;3.17647
38.911;4.17647
38.9172;3.98039
38.9233;3.07843
38.9295;3.78431
38.9357;3.80392
38.9418;2.80392
38.948;3.33333
38.9542;3.4902
38.9604;2.62745
38.9665;3.41176
38.9727;3.58824
38.9789;2.72549
38.9851;2.86275
38.9912;3.47059
38.9974;2.45098
39.0036;2.66667
39.0099;3.31373
39.0161;2.60784
39.0224;2.21569
39.0286;3.03922
39.0348;2.76471
39.0411;2.47059
39.0473;3.2549
39.0536;2.7451
39.0598;2.33333
39.0661;3.11765
39.0723;3.13725
39.0786;2.09804
39.0848;2.90196
39.0911;3.33333
39.0973;2.41176
39.1036;2.45098
39.1098;3.07843
39.1161;2.41176
39.1223;2.17647
39.1286;3.03922
39.1348;2.62745
39.1411;1.47059
39.1473;2.07843
39.1536;2.01961
39.1598;1.52941
39.1661;1.76471
39.1723;2.54902
39.1786;2
39.1848;1.70588
39.1911;2.70588
39.1973;2.86275
39.2036;2.21569
39.2098;3.07843
39.2161;3.47059
39.2223;2.56863
39.2285;2.60784
39.2348;3.39216
39.241;2.86275
39.2473;2.5098
39.2535;3.72549
39.2598;3.11765
39.266;2.2549
39.2723;3.01961
39.2785;3.35294
39.2848;2.2549
39.291;2.58824
39.2973;1.23529
39.3035;0.0588235
39.3098;0.0196078
39.316;0
39.3222;0.0392157
39.3284;2.09804
39.3345;3.13725
39.3406;2.7451
39.3468;3.09804
39.3529;3.56863
39.359;2.96078
39.3652;2.70588
39.3713;3.4902
39.3774;2.7451
39.3836;2.56863
39.3897;3.39216
39.3958;2.80392
39.402;2.13725
39.4081;3.05882
39.4142;2.35294
39.4204;2.01961
39.4265;2.92157
39.4326;2.41176
39.4388;1.66667
39.4449;2.35294
39.451;2.4902
39.4572;1.29412
39.4633;2.09804
39.4694;2.05882
39.4756;1.13725
39.4817;1.66667
39.4878;1.86275
39.494;1.15686
39.5001;1.66667
39.5062;1.62745
39.5124;0.784314
39.5185;1.13725
39.5246;1.56863
39.5308;0.980392
39.5369;0.72549
39.543;1.7451
39.5492;1.39216
39.5553;1.11765
39.5614;1.98039
39.5676;2.23529
39.5737;1.88235
39.5798;2.43137
39.586;3.33333
39.5921;2.84314
39.5983;3.03922
39.6044;3.96078
39.6105;3.60784
39.6167;3.19608
39.6228;4.19608
39.6289;4.07843
39.6351;3.39216
39.6413;3.80392
39.6475;4.01961
39.6537;3.35294
39.6599;3.05882
39.6661;3.80392
39.6723;3.47059
39.6785;2.52941
39.6847;3.52941
39.6909;3.37255
39.6971;2.54902
39.7033;3.07843
39.7095;3.29412
39.7157;2.80392
39.7218;2.78431
39.728;3.27451
39.7342;3.05882
39.7404;2.76471
39.7466;3.41176
39.7528;2.76471
39.759;2.47059
39.7652;3.43137
39.7714;3.19608
39.7776;2.27451
39.7838;3.2549
39.79;2.88235
39.7962;2.33333
39.8024;3.01961
39.8086;2.90196
39.8148;2.23529
39.821;2.86275
39.8272;2.72549
39.8334;2.05882
39.8396;2.62745
39.8457;2.41176
39.8519;1.60784
39.8581;1.92157
39.8643;2.39216
39.8705;1.54902
39.8767;2.43137
39.8829;2.72549
39.8891;2
39.8953;2.41176
39.9015;3.23529
39.9077;3.09804
39.9139;3.09804
39.9201;3.62745
39.9263;2.90196
39.9325;2.54902
39.9387;3.84314
39.9449;3.07843
39.9511;2.29412
39.9573;3.37255
39.9635;2.96078
39.9698;2.5098
39.976;3.47059
39.9822;3.2549
39.9884;2.03922
39.9946;1.58824
40.0008;0
40.0071;0
40.0133;0.0784314
40.0195;0.333333
40.0257;1
40.0319;3.09804
40.0382;3.94118
40.0444;3.33333
40.0506;2.94118
40.0568;3.58824
40.063;3.19608
40.0692;2.37255
40.0755;3.27451
40.0817;3.31373
40.0879;1.94118
40.0941;2.47059
40.1003;2.96078
40.1065;2.39216
40.1128;2
40.119;2.78431
40.1252;2.39216
40.1314;1.7451
40.1376;2.52941
40.1439;2.45098
40.1501;1.54902
40.1563;2.01961
40.1625;2.5098
40.1687;1.7451
40.1749;1.45098
40.1812;2.11765
40.1874;1.4902
40.1936;1
40.1998;1.70588
40.206;1.47059
40.2123;1.03922
40.2185;1.27451
40.2247;1.43137
40.2309;0.607843
40.2371;0.568627
40.2433;1.21569
40.2496;0.647059
40.2558;0.843137
40.2619;1.7451
40.2681;1.13725
40.2742;1.29412
40.2804;2.2549
40.2865;2.17647
40.2927;2.41176
40.2988;3.45098
40.305;3.11765
40.3111;2.90196
40.3173;4.01961
40.3234;3.90196
40.3296;3.13725
40.3357;4
40.3419;3.72549
40.348;3.07843
40.3542;3.86275
40.3603;3.7451
40.3665;3.17647
40.3726;3.62745
40.3788;3.43137
40.3849;2.64706
40.3911;3.2549
40.3972;3.33333
40.4034;2.58824
40.4095;2.56863
40.4157;3.13725
40.4218;2.31373
40.428;2.62745
40.4341;3.17647
40.4403;2.39216
40.4464;2.21569
40.4526;3.15686
40.4587;2.21569
40.4649;2.47059
40.471;3.09804
40.4772;2.41176
40.4833;2.13725
40.4895;3.21569
40.4956;2.66667
40.5018;2.11765
40.5079;2.96078
40.514;2.37255
40.5202;1.56863
40.5263;2.4902
40.5325;2.33333
40.5386;1.52941
40.5448;2.11765
40.5509;2.78431
40.5571;2.09804
40.5632;2.09804
40.5694;3.11765
40.5756;3.01961
40.5818;2.29412
40.588;3.35294
40.5942;3.31373
40.6004;2.60784
40.6067;3.03922
40.6129;3.41176
40.6191;2.68627
40.6253;2.80392
40.6315;3.39216
40.6377;3.01961
40.6439;2.35294
40.6501;3.27451
40.6563;3.2549
40.6625;2.35294
40.6688;2.31373
40.675;1.72549
40.6812;0.0392157
40.6874;0.0196078
40.6936;0.0980392
40.6998;0.235294
40.706;1.01961
40.7122;3.05882
40.7184;3.39216
40.7247;2.78431
40.7309;3.01961
40.7371;3.31373
40.7433;2.27451
40.7495;3.33333
40.7557;3.19608
40.7619;2.54902
40.7681;2.84314
40.7743;2.92157
40.7805;2.64706
40.7868;2.62745
40.793;3.01961
40.7992;2.13725
40.8054;2.07843
40.8116;2.72549
40.8178;2.07843
40.824;1.68627
40.8302;2.4902
40.8364;1.94118
40.8426;1.47059
40.8489;2.39216
40.8551;1.72549
40.8613;1.05882
40.8675;1.7451
40.8737;1.23529
40.8799;0.607843
40.8861;1.5098
40.8923;1.17647
40.8985;0.470588
40.9047;1
40.9109;1.31373
40.917;0.431373
40.9232;1.37255
40.9294;1.72549
40.9356;0.980392
40.9418;1.52941
40.948;2.29412
40.9542;1.94118
40.9604;2.80392
40.9665;3.33333
40.9727;2.80392
40.9789;3.27451
40.9851;4.17647
40.9913;3.96078
40.9975;3.33333
41.0037;4.27451
41.0099;4.11765
41.016;3.2549
41.0222;3.88235
41.0284;4.07843
41.0346;3.33333
41.0408;3.13725
41.047;3.82353
41.0532;3.23529
41.0594;2.41176
41.0655;3.41176
41.0717;3.35294
41.0779;2.54902
41.0841;3.15686
41.0903;3.07843
41.0965;2.31373
41.1027;2.23529
41.1089;2.88235
41.115;2.37255
41.1212;2.07843
41.1274;3.15686
41.1336;2.68627
41.1398;1.90196
41.146;2.62745
41.1522;2.76471
41.1584;2.09804
41.1645;2.33333
41.1707;2.82353
41.1769;2.27451
41.1831;2.17647
41.1893;3.07843
41.1955;2.66667
41.2016;1.92157
41.2077;2.5098
41.2139;1.82353
41.22;1.5098
41.2262;2.45098
41.2323;2.39216
41.2384;1.7451
41.2446;2.66667
41.2507;2.72549
41.2568;2.31373
41.263;3.15686
41.2691;3.17647
41.2752;2.37255
41.2814;2.70588
41.2875;3.19608
41.2936;2.31373
41.2998;2.70588
41.3059;3.05882
41.312;2.37255
41.3182;2.43137
41.3243;3.09804
41.3304;2.39216
41.3366;2.54902
41.3427;1.96078
41.3488;0.235294
41.355;0.0392157
41.3611;0.0980392
41.3672;0
41.3734;1.15686
41.3795;2.88235
41.3856;3.11765
41.3918;2.94118
41.3979;3.7451
41.404;3.4902
41.4102;2.70588
41.4163;3.70588
41.4224;3.31373
41.4286;2.90196
41.4347;3.52941
41.4408;3.64706
41.447;2.64706
41.4531;2.90196
41.4592;3.07843
41.4654;2.19608
41.4715;2.72549
41.4776;2.98039
41.4838;1.98039
41.4899;2.13725
41.496;2.64706
41.5022;2.05882
41.5084;1.54902
41.5146;2.19608
41.5208;1.94118
41.5271;1.13725
41.5333;1.66667
41.5395;1.68627
41.5458;0.666667
41.552;0.901961
41.5582;1.47059
41.5645;0.784314
41.5707;0.411765
41.5769;1.2549
41.5832;1.03922
41.5894;0.411765
41.5956;1.2549
41.6019;1.43137
41.6081;0.862745
41.6143;1.47059
41.6206;2.11765
41.6268;1.90196
41.633;1.84314
41.6393;2.98039
41.6455;2.92157
41.6517;2.58824
41.658;3.35294
41.6642;3.56863
41.6704;3.2549
41.6767;3.29412
41.6829;3.78431
41.6891;3.15686
41.6954;3
41.7016;3.70588
41.7078;2.84314
41.7141;2.84314
41.7203;3.58824
41.7265;3.07843
41.7328;2.52941
41.739;3.37255
41.7452;2.68627
41.7515;2.29412
41.7577;3.03922
41.7639;2.82353
41.7702;2.21569
41.7764;3
41.7826;2.88235
41.7889;2.17647
41.7951;2.90196
41.8013;2.62745
41.8076;1.72549
41.8138;2.66667
41.82;3.05882
41.8262;2.35294
41.8324;2.84314
41.8386;3.03922
41.8447;2.07843
41.8509;2.45098
41.857;3
41.8632;2.23529
41.8694;2.15686
41.8755;2.84314
41.8817;1.84314
41.8879;1.7451
41.894;2.60784
41.9002;1.86275
41.9064;1.64706
41.9125;2.64706
41.9187;1.7451
41.9249;1.90196
41.931;2.96078
41.9372;2.70588
41.9434;2.19608
41.9495;3.07843
41.9557;3.27451
41.9618;2.31373
41.968;3.17647
41.9742;3.01961
41.9803;2.29412
41.9865;3.07843
41.9927;2.94118
41.9988;2.31373
42.005;2.58824
42.0112;3.11765
42.0173;2.60784
42.0235;1.58824
42.0297;1.39216
42.0358;0
42.042;0
42.0481;0.117647
42.0543;0.215686
42.0605;0.588235
42.0666;2.37255
42.0728;3.33333
42.079;3.11765
42.0851;2.76471
42.0913;3.66667
42.0975;3.19608
42.1036;2.37255
42.1098;3.23529
42.116;3.13725
42.1221;2.60784
42.1283;2.82353
42.1345;3.11765
42.1406;2.33333
42.1468;2.17647
42.1529;3.54902
42.1591;2.17647
42.1653;2.15686
42.1714;2.7451
42.1776;2.15686
42.1838;1.66667
42.1899;2.62745
42.1961;2.39216
42.2023;1.43137
42.2084;2.19608
42.2146;1.64706
42.2208;1.05882
42.2269;1.82353
42.2331;1.66667
42.2393;0.823529
42.2454;1.58824
42.2516;1.17647
42.2577;0.54902
42.2639;1.23529
42.2701;1.37255
42.2762;0.784314
42.2824;1.05882
42.2886;1.90196
42.2947;1.31373
42.3009;2.07843
42.3071;2.60784
42.3132;2.21569
42.3194;2.41176
42.3256;3.47059
42.3317;2.7451
42.3379;3.2549
42.344;3.84314
42.3502;3.4902
42.3564;3.11765
42.3625;3.96078
42.3687;3.86275
42.3749;2.94118
42.381;3.84314
42.3872;3.2549
42.3934;2.62745
42.3995;3.76471
42.4057;3.47059
42.4119;2.58824
42.418;3.29412
42.4242;3
42.4304;2.09804
42.4365;2.94118
42.4427;2.94118
42.4488;2.31373
42.4551;2.4902
42.4614;3.15686
42.4676;2.39216
42.4739;2.05882
42.4801;2.88235
42.4864;2.58824
42.4926;1.88235
42.4989;2.68627
42.5051;2.94118
42.5114;2.11765
42.5177;2.45098
42.5239;3.03922
42.5302;2.56863
42.5364;2.35294
42.5427;3.15686
42.5489;2.78431
42.5552;2.15686
42.5615;2.98039
42.5677;2.94118
42.574;2.03922
42.5802;2.29412
42.5865;2.62745
42.5927;1.84314
42.599;1.56863
42.6052;2.23529
42.6115;2.01961
42.6178;1.39216
42.624;2.33333
42.6303;2.80392
42.6365;1.88235
42.6428;2.23529
42.649;3.09804
42.6553;2.4902
42.6616;3.01961
42.6678;3.13725
42.6741;2.05882
42.6803;2.78431
42.6866;2.98039
42.6928;2.80392
42.6991;2.23529
42.7053;3.11765
42.7116;2.4902
42.7179;2.45098
42.7241;3.29412
42.7304;2.64706
42.7366;1.19608
42.7429;0.784314
42.7491;0
42.7554;0
42.7617;0.176471
42.7679;0.823529
42.7741;1.82353
42.7803;3.09804
42.7864;3.62745
42.7926;2.68627
42.7988;3.35294
42.805;3.52941
42.8112;2.7451
42.8173;3.23529
42.8235;3.43137
42.8297;2.78431
42.8359;2.92157
42.8421;3.17647
42.8482;2.21569
42.8544;2.41176
42.8606;2.94118
42.8668;2.31373
42.873;1.78431
42.8791;2.78431
42.8853;1.92157
42.8915;1.70588
42.8977;2.47059
42.9039;1.94118
42.91;1.21569
42.9162;1.88235
42.9224;1.47059
42.9286;1
42.9348;2.13725
42.9409;1.33333
42.9471;0.745098
42.9533;1.39216
42.9595;1.43137
42.9657;0.784314
42.9718;0.823529
42.978;1.68627
42.9842;1.13725
42.9904;1.19608
42.9966;2.03922
43.0027;2
43.0089;1.47059
43.0151;2.5098
43.0213;2.94118
43.0275;2.5098
43.0336;3.13725
43.0398;3.76471
43.046;3.37255
43.0522;3.23529
43.0584;4.09804
43.0645;4.07843
43.0707;3.09804
43.0769;3.98039
43.0831;3.86275
43.0892;3.17647
43.0954;3.58824
43.1016;3.92157
43.1078;3.07843
43.1139;2.84314
43.1201;3.58824
43.1263;3.23529
43.1325;2.37255
43.1386;3.33333
43.1448;3.27451
43.151;2.39216
43.1571;2.88235
43.1633;3.01961
43.1695;2.19608
43.1757;2.84314
43.1818;3.01961
43.188;2.37255
43.1942;2.60784
43.2003;3.11765
43.2065;2.07843
43.2127;2.66667
43.2189;3.13725
43.225;2.58824
43.2312;2.29412
43.2374;3.09804
43.2435;2.94118
43.2497;2.45098
43.2559;3.15686
43.2621;2.54902
43.2682;2.39216
43.2744;3.27451
43.2806;2.92157
43.2868;2
43.2929;2.98039
43.2991;2.80392
43.3053;2.07843
43.3114;3.01961
43.3176;2.84314
43.3238;1.82353
43.33;1.92157
43.3361;2.01961
43.3423;1.23529
43.3485;2.07843
43.3546;2.33333
43.3608;1.62745
43.367;2.03922
43.3732;2.94118
43.3793;2.09804
43.3855;2.92157
43.3917;3.58824
43.3979;2.66667
43.4042;2.7451
43.4104;3.37255
43.4167;2.84314
43.4229;2.80392
43.4292;3.35294
43.4354;2.70588
43.4417;2.47059
43.4479;3.35294
43.4542;3.19608
43.4604;2.39216
43.4667;2.90196
43.4729;1.82353
43.4792;0.0392157
43.4854;0
43.4917;0.0588235
43.4979;0.0196078
43.5042;0.627451
43.5104;2.90196
43.5167;3.31373
43.5229;2.70588
43.5291;3.76471
43.5354;3.76471
43.5416;2.90196
43.5479;3.07843
43.5541;3.64706
43.5604;3.37255
43.5666;2.76471
43.5729;3.5098
43.5791;2.98039
43.5854;2.13725
43.5916;2.94118
43.5979;2.80392
43.6041;2.03922
43.6104;2.7451
43.6166;2.98039
43.6229;2.27451
43.6291;1.90196
43.6354;2.45098
43.6416;2
43.6479;1.35294
43.6541;2.15686
43.6604;1.94118
43.6666;1.09804
43.6729;1.84314
43.6791;1.7451
43.6854;0.745098
43.6916;1.29412
43.6979;1.64706
43.7041;0.921569
43.7103;1.35294
43.7165;1.37255
43.7226;0.509804
43.7288;1.03922
43.735;1.60784
43.7411;1.2549
43.7473;1.33333
43.7535;2.29412
43.7596;1.84314
43.7658;2.41176
43.772;3.15686
43.7781;3.05882
43.7843;2.86275
43.7905;4.09804
43.7966;3.5098
43.8028;3.41176
43.8089;4.09804
43.8151;3.72549
43.8213;3.07843
43.8274;3.72549
43.8336;3.76471
43.8398;2.80392
43.8459;3.62745
43.8521;3.45098
43.8583;2.66667
43.8644;3.52941
43.8706;3.41176
43.8768;2.47059
43.8829;3.35294
43.8891;3.11765
43.8952;2.21569
43.9014;3.05882
43.9076;3.56863
43.9137;2.54902
43.9199;2.66667
43.9261;3.19608
43.9322;2.37255
43.9384;2.68627
43.9446;3.35294
43.9507;2.7451
43.9569;2.39216
43.9631;3.35294
43.9692;2.84314
43.9754;2.15686
43.9816;3.17647
43.9877;3.21569
43.9939;2.43137
44;2.70588
44.0062;3.09804
44.0124;2.58824
44.0185;2.45098
44.0247;3.15686
44.0309;2.66667
44.0371;1.78431
44.0434;2.96078
44.0496;3.05882
44.0558;2.2549
44.062;2.52941
44.0682;2.92157
44.0744;2.37255
44.0806;1.92157
44.0868;3.03922
44.093;2.58824
44.0992;2.11765
44.1054;2.58824
44.1116;2.17647
44.1178;1.37255
44.124;2.27451
44.1302;2
44.1364;1.37255
44.1426;2.13725
44.1488;2.45098
44.155;1.84314
44.1612;3.01961
44.1674;3.15686
44.1736;2.47059
44.1798;2.70588
44.186;3.39216
44.1922;2.5098
44.1984;2.54902
44.2046;3.31373
44.2108;2.80392
44.217;2.72549
44.2232;3.33333
44.2294;2.62745
44.2356;2.29412
44.2418;3.45098
44.248;2.19608
44.2542;1.21569
44.2604;0.627451
44.2666;0
44.2729;0
44.2791;0.196078
44.2853;1.01961
44.2915;2.54902
44.2977;4.09804
44.3039;3.92157
44.3101;2.66667
44.3163;3.19608
44.3225;3.2549
44.3287;2.80392
44.3349;3.41176
