0.82235390;1.92156863
0.82235390;1.52941179
0.82635164;1.60784316
0.83052135;2.07843137
0.83465010;2.43137264
0.83465010;2.74509811
0.83875430;2.50980401
0.84272742;1.92156863
0.84688079;1.56862748
0.84688079;1.98039210
0.85104233;2.66666675
0.85516286;3.09803915
0.85930800;2.21568632
0.86333847;1.78431368
0.86744267;1.50980389
0.86744267;2.17647052
0.87156326;2.58823538
0.87567562;2.86274505
0.87976348;2.82352948
0.87976348;1.84313726
0.88384306;1.33333337
0.88811928;1.45098042
0.89203507;2.31372547
0.89203507;2.78431368
0.89601636;2.82352948
0.90021890;2.25490189
0.90429032;1.39215684
0.90837812;1.90196073
0.91237581;2.52941179
0.91237581;2.76470590
0.91651279;2.92156863
0.92069072;2.31372547
0.92491776;1.66666663
0.92491776;1.33333337
0.92876798;1.94117641
0.93292135;2.84313726
0.93713206;2.94117641
0.93713206;2.66666675
0.94130176;1.70588231
0.94528306;1.49019611
0.94528306;1.86274505
0.94939548;2.21568632
0.95332760;2.56862736
0.95755470;2.88235283
0.95755470;2.64705873
0.96154422;1.76470590
0.96564019;1.13725495
0.96978533;1.56862748
0.96978533;2.50980401
0.97393048;3.15686274
0.97803468;2.92156863
0.98231912;1.86274505
0.98231912;1.33333337
0.98623490;1.60784316
0.99024075;2.31372547
0.99024075;2.60784316
0.99435318;2.68627453
0.99855566;2.78431368
1.00263524;2.31372547
1.00263524;1.72549021
1.00678861;1.74509799
1.01073718;2.23529410
1.01498055;3.11764717
1.01498055;3.11764717
1.01903570;2.45098042
1.02302516;1.50980389
1.02715397;1.47058821
1.02715397;2.31372547
1.03122532;2.64705873
1.03535414;2.76470590
1.03535414;2.84313726
1.03929448;2.70588231
1.04383278;1.92156863
1.04755199;1.50980389
1.04755199;1.94117641
1.05184460;2.72549009
1.05580950;3.49019599
1.05999565;3.05882359
1.05999565;1.92156863
1.06413257;1.19607842
1.06812215;1.96078432
1.07218540;2.96078420
1.07218540;3.15686274
1.07640421;3.09803915
1.08036911;2.58823538
1.08036911;2.03921580
1.08476007;1.88235295
1.08839726;2.37254906
1.09268177;2.82352948
1.09268177;3.09803915
1.09678590;3.33333325
1.10093105;2.72549009
1.10505986;2.21568632
1.10505986;1.86274505
1.10903299;2.43137264
1.11314535;3.17647052
1.11729872;3.60784316
1.11729872;3.58823538
1.12147665;2.60784316
1.12544978;1.96078432
1.12544978;2.23529410
1.12948024;2.82352948
1.13374817;3.25490189
1.13791800;3.35294127
1.13791800;2.78431368
1.14189112;1.80392158
1.14599526;1.41176474
1.15008307;2.09803915
1.15008307;2.68627453
1.15421999;3.17647052
1.15841436;3.41176462
1.16239560;1.41176474
1.16635239;1.70588231
1.17047298;2.37254906
1.17047298;2.90196085
1.17465901;3.25490189
1.17859125;2.90196085
1.18275273;1.62745094
1.18275273;1.94117641
1.18676686;2.17647052
1.19096935;2.09803915
1.19512272;2.72549009
1.19512272;3.60784316
1.19916952;3.37254906
1.20360136;2.07843137
1.20739436;1.31372547
1.21170330;1.76470590
1.21548796;2.92156863
1.21548796;3.35294127
1.22007549;2.58823538
1.22385204;2.17647052
1.22815287;2.74509811
1.22815287;3.78431368
1.23195398;4.96078444
1.23609090;4.96078444
1.24019504;4.96078444
1.24019504;4.96078444
1.24420917;4.96078444
1.24832153;4.96078444
1.25260592;4.96078444
1.25671828;4.74509811
1.26070786;2.98039222
1.26070786;1.09803927
1.26482022;0.31372550
1.26913738;0.68627453
1.27312696;0.80392158
1.27312696;1.41176474
1.27739489;1.52941179
1.28131890;0.76470590
1.28544772;0.33333334
1.28544772;0.76470590
1.28961742;1.54901958
1.29354954;1.92156863
1.29767835;2.03921580
1.30181527;0.98039216
1.30587852;0.35294119
1.30587852;1.00000000
1.30985987;1.49019611
1.31393123;2.29411769
1.31800270;2.62745094
1.31800270;1.64705884
1.32204139;0.72549021
1.32615376;0.54901963
1.33042991;1.56862748
1.33042991;1.86274505
1.33439493;2.62745094
1.33857274;2.50980401
1.34244764;1.25490201
1.34666646;1.27450979
1.35078704;2.13725495
1.35078704;2.07843137
1.35493219;2.76470590
1.35891354;2.50980401
1.36301768;1.64705884
1.36301768;1.17647064
1.36717927;1.60784316
1.37147188;2.45098042
1.37548590;2.82352948
1.37548590;3.45098042
1.37953281;2.74509811
1.38355505;1.72549021
1.38772476;2.29411769
1.39188635;2.98039222
1.39581025;3.01960778
1.39581025;3.43137264
1.39990628;2.80392146
1.40405965;2.33333325
1.40826213;2.07843137
1.40826213;2.82352948
1.41209602;3.17647052
1.41636407;3.56862736
1.42041087;3.45098042
1.42041087;2.62745094
1.42449868;2.23529410
1.42863560;2.39215684
1.43278897;4.05882359
1.43684399;4.31372547
1.44093180;3.72549009
1.44093180;2.96078420
1.44494593;2.39215684
1.44915664;3.07843137
1.45318711;4.05882359
1.45318711;4.60784292
1.45722568;4.70588255
1.46146095;3.94117641
1.46556520;3.19607854
1.46556520;3.11764717
1.46951377;3.92156863
1.47365892;4.64705896
1.47365892;4.96078444
1.47777128;4.64705896
1.48172796;3.62745094
1.48585677;3.27450991
1.48585677;3.70588231
1.48998559;4.23529434
1.49411428;4.96078444
1.49829221;4.86274529
1.49829221;4.17647076
1.50242913;3.31372547
1.50632858;2.68627453
1.51058841;3.23529410
1.51058841;3.80392146
1.51476634;4.37254906
1.51882136;4.00000000
1.51882136;2.88235283
1.52273715;2.19607854
1.52691507;1.78431368
1.53103566;2.35294127
1.53103566;2.94117641
1.53517258;3.01960778
1.53907204;2.80392146
1.54342198;1.58823526
1.54342198;0.72549021
1.54741967;1.17647064
1.55154836;1.58823526
1.55558705;2.01960778
1.55558705;1.98039210
1.55978954;1.49019611
1.56391013;0.84313726
1.56391013;0.39215687
1.56785047;0.90196079
1.57220042;1.52941179
1.57601798;1.96078432
1.57601798;1.88235295
1.58026135;1.05882359
1.58426726;0.66666669
1.58843696;0.92156863
1.58843696;1.58823526
1.59234452;1.98039210
1.59653890;1.90196073
1.60065949;1.84313726
1.60065949;1.03921568
1.60478008;0.39215687
1.60892522;0.90196079
1.60892522;1.66666663
1.61289835;2.17647052
1.61699426;2.23529410
1.62131155;1.62745094
1.62131155;0.94117647
1.62529278;0.80392158
1.62938058;1.45098042
1.63335371;2.00000000
1.63335371;2.39215684
1.63744152;2.39215684
1.64150476;1.39215684
1.64556801;1.09803927
1.64979506;1.92156863
1.65389109;2.60784316
1.65389109;2.68627453
1.65806079;2.33333325
1.66203392;1.39215684
1.66617084;0.98039216
1.66617084;1.47058821
1.67028332;1.98039210
1.67445302;2.58823538
1.67854905;2.82352948
1.67854905;2.23529410
1.68251395;1.49019611
1.68659353;1.21568632
1.69062400;2.66666675
1.69476092;2.96078420
1.69890606;2.88235283
1.69890606;2.03921580
1.70294476;1.66666663
1.70715547;1.64705884
1.71130061;2.29411769
1.71130061;2.70588231
1.71542943;2.90196085
1.71932054;2.66666675
1.72354770;1.86274505
1.72354770;1.45098042
1.72766817;2.03921580
1.73192811;2.62745094
1.73592579;3.03921580
1.74006271;2.45098042
1.74415874;1.76470590
1.74415874;1.45098042
1.74827111;2.01960778
1.75227702;2.52941179
1.75646305;3.13725495
1.75646305;3.17647052
1.76041162;2.23529410
1.76458955;1.52941179
1.76865280;1.50980389
1.76865280;2.47058821
1.77262592;3.09803915
1.77687752;3.07843137
1.78107190;1.96078432
1.78518426;1.29411769
1.78928840;1.86274505
1.78928840;2.58823538
1.79320419;3.00000000
1.79732478;3.05882359
1.80153549;2.49019599
1.80153549;1.84313726
1.80558228;1.58823526
1.80966198;2.15686274
1.81377435;2.94117641
1.81377435;2.90196085
1.81791127;3.07843137
1.82195818;2.29411769
1.82602143;2.05882359
1.82997811;2.19607854
1.83410692;2.49019599
1.83410692;3.21568632
1.83851421;2.96078420
1.84249544;1.94117641
1.84637034;2.05882359
1.84637034;2.15686274
1.85065472;2.39215684
1.85475075;3.66666675
1.85894501;3.23529410
1.85894501;2.11764717
1.86287713;1.45098042
1.86699772;1.66666663
1.87112653;2.98039222
1.87525535;2.88235283
1.87925303;2.80392146
1.87925303;1.82352936
1.88337362;1.76470590
1.88751876;2.29411769
1.89151645;2.86274505
1.89151645;2.84313726
1.89548135;3.27450991
1.89950359;2.56862736
1.90356684;1.82352936
1.90356684;1.74509799
1.90782666;2.31372547
1.91190636;2.52941179
1.91603506;3.35294127
1.92008197;2.56862736
1.92424345;1.58823526
1.92424345;1.41176474
1.92835581;2.41176462
1.93231261;2.80392146
1.93642497;3.33333325
1.93642497;3.39215684
1.94055378;2.27450991
1.94467425;1.52941179
1.94878674;2.03921580
1.94878674;2.68627453
1.95271885;3.25490189
1.95694590;3.37254906
1.95694590;2.80392146
1.96107471;1.78431368
1.96526074;1.49019611
1.96935678;1.86274505
1.96935678;3.00000000
1.97334635;3.19607854
1.97744226;3.01960778
1.98151374;2.50980401
1.98151374;1.76470590
1.98556054;1.60784316
1.98964834;2.74509811
1.99371982;3.09803915
1.99371982;3.15686274
1.99784863;3.39215684
2.00197744;2.03921580
2.00197744;1.64705884
2.00606513;2.31372547
2.01019382;2.76470590
2.01424885;3.13725495
2.01424885;3.58823538
2.01850057;3.19607854
2.02233458;2.52941179
2.02650428;2.05882359
2.02650428;2.60784316
2.03063297;3.33333325
2.03484368;3.60784316
2.03889060;3.56862736
2.03889060;3.39215684
2.04297829;2.31372547
2.04708242;1.82352936
2.04708242;2.80392146
2.05126047;3.05882359
2.05539727;3.13725495
2.05946064;3.15686274
2.05946064;2.19607854
2.06355667;1.35294116
2.06768537;1.50980389
2.07181406;2.07843137
2.07181406;2.86274505
2.07581997;3.09803915
2.07995701;2.58823538
2.08411860;1.74509799
2.08411860;1.58823526
2.08815718;1.88235295
2.09234333;2.41176462
2.09234333;3.07843137
2.09639025;2.88235283
2.10036325;2.41176462
2.10447574;1.70588231
2.10447574;1.37254906
2.10875177;2.29411769
2.11275768;2.62745094
2.11687016;2.72549009
2.11687016;2.76470590
2.12101531;1.94117641
2.12516856;1.19607842
2.12928915;1.64705884
2.12928915;2.19607854
2.13327050;2.64705873
2.13753867;3.25490189
2.13753867;3.39215684
2.14152813;3.21568632
2.14556670;3.78431368
2.14955616;4.96078444
2.14955616;4.96078444
2.15367675;4.96078444
2.15790391;4.96078444
2.16199160;4.96078444
2.16199160;4.96078444
2.16590738;4.96078444
2.17001176;4.96078444
2.17430425;3.52941179
2.17840838;2.09803915
2.18254542;0.96078432
2.18254542;0.00000000
2.18652678;0.11764706
2.19065547;1.07843137
2.19475961;1.52941179
2.19475961;1.68627453
2.19890475;1.66666663
2.20287800;0.86274511
2.20701480;0.49019608
2.20701480;1.15686274
2.21107817;1.64705884
2.21510863;2.21568632
2.21934390;1.21568632
2.22358727;0.60784316
2.22747040;0.37254903
2.22747040;1.25490201
2.23160720;1.98039210
2.23564601;2.45098042
2.23997951;2.27450991
2.23997951;1.17647064
2.24394441;0.74509805
2.24804854;1.00000000
2.25216913;1.64705884
2.25216913;2.13725495
2.25624061;2.45098042
2.26028752;2.11764717
2.26438355;1.00000000
2.26852870;1.62745094
2.27255917;2.15686274
2.27255917;2.60784316
2.27661419;2.96078420
2.28070188;2.37254906
2.28497815;1.66666663
2.28497815;1.50980389
2.28886127;2.13725495
2.29288340;2.72549009
2.29711056;3.01960778
2.29711056;3.00000000
2.30118203;2.11764717
2.30535173;1.54901958
2.30943131;2.70588231
2.31342888;3.25490189
2.31754947;3.33333325
2.31754947;2.98039222
2.32166195;2.27450991
2.32565141;1.70588231
2.32978845;2.29411769
2.32978845;3.15686274
2.33402371;3.78431368
2.33811975;3.68627453
2.34216642;2.96078420
2.34216642;2.45098042
2.34617233;2.39215684
2.35046506;2.94117641
2.35436440;4.13725471
2.35848498;4.07843161
2.36263824;3.21568632
2.36263824;2.70588231
2.36666059;3.01960778
2.37076473;3.70588231
2.37490988;4.45098019
2.37490988;4.66666651
2.37889123;4.31372547
2.38300371;3.45098042
2.38714886;3.09803915
2.38714886;3.72549009
2.39125299;4.31372547
2.39554548;4.66666651
2.39951873;4.09803915
2.40351653;3.33333325
2.40767789;3.25490189
2.40767789;4.01960802
2.41183949;4.41176462
2.41591096;4.47058821
2.41990042;4.17647076
2.41990042;3.19607854
2.42405367;2.27450991
2.42805958;2.45098042
2.43225384;3.17647052
2.43225384;3.47058821
2.43642378;3.35294127
2.44040489;2.74509811
2.44453382;1.17647064
2.44867897;1.49019611
2.45279956;1.92156863
2.45279956;2.29411769
2.45713305;2.43137264
2.46095061;1.50980389
2.46506286;0.60784316
2.46506286;0.29411766
2.46905231;0.98039216
2.47317290;1.54901958
2.47752285;2.01960778
2.47752285;1.68627453
2.48147154;0.68627453
2.48557568;0.00000000
2.48557568;0.31372550
2.48964715;1.11764705
2.49366927;1.82352936
2.49792099;2.01960778
2.49792099;1.33333337
2.50205803;0.33333334
2.50603938;0.03921569
2.51016808;0.98039216
2.51016808;1.80392158
2.51428056;2.00000000
2.51841736;2.25490189
2.52243972;0.86274511
2.52243972;0.88235295
2.52647018;0.84313726
2.53052521;1.19607842
2.53052521;1.62745094
2.53467035;2.37254906
2.53900385;2.60784316
2.54296064;1.19607842
2.54296064;0.41176471
2.54699922;0.74509805
2.55088234;1.49019611
2.55516672;2.13725495
2.55516672;2.68627453
2.55909896;2.43137264
2.56333423;1.27450979
2.56737280;0.62745100
2.56737280;0.98039216
2.57154250;1.74509799
2.57566309;2.49019599
2.57566309;2.72549009
2.57963634;1.64705884
2.58369946;1.19607842
2.58775449;1.33333337
2.58775449;1.66666663
2.59187508;1.92156863
2.59594655;2.05882359
2.60004258;2.39215684
2.60004258;1.70588231
2.60420394;1.23529410
2.60842299;1.39215684
2.61255169;1.82352936
2.61255169;2.41176462
2.61653304;2.49019599
2.62067819;2.00000000
2.62067819;1.17647064
2.62473321;1.11764705
2.62888646;2.03921580
2.63285136;2.37254906
2.63285136;2.52941179
2.63697195;2.62745094
2.64111710;2.05882359
2.64512300;1.33333337
2.64512300;1.11764705
2.64923549;1.52941179
2.65334773;2.39215684
2.65741110;2.94117641
2.65741110;2.56862736
2.66158891;1.58823526
2.66578341;1.11764705
2.66578341;1.72549021
2.66976452;2.15686274
2.67392612;2.70588231
2.67803860;2.49019599
2.67803860;2.33333325
2.68217540;1.78431368
2.68632889;1.15686274
2.69054770;1.47058821
2.69054770;2.17647052
2.69453716;3.05882359
2.69863319;3.00000000
2.70269656;1.29411769
2.70669413;1.29411769
2.71070004;2.33333325
2.71070004;2.58823538
2.71480417;2.70588231
2.71908045;2.37254906
2.72313547;1.94117641
2.72313547;1.47058821
2.72716594;1.58823526
2.73135209;2.11764717
2.73548913;2.72549009
2.73548913;3.07843137
2.73951125;2.56862736
2.74365640;1.82352936
2.74780989;2.17647052
2.75193048;2.88235283
2.75599360;2.96078420
2.75599360;2.74509811
2.76001596;1.94117641
2.76412821;1.62745094
2.76826525;1.56862748
2.76826525;2.11764717
2.77238584;2.52941179
2.77639985;2.90196085
2.78044677;2.90196085
2.78044677;2.09803915
2.78464103;1.39215684
2.78865504;1.74509799
2.79272652;2.88235283
2.79686356;3.03921580
2.80104971;2.33333325
2.80104971;1.41176474
2.80515385;1.29411769
2.80931544;2.00000000
2.81328034;2.52941179
2.81328034;2.98039222
2.81754017;2.88235283
2.82154608;2.07843137
2.82568288;1.54901958
2.82568288;1.68627453
2.82961512;2.23529410
2.83376026;2.68627453
2.83783984;2.78431368
2.84200144;1.90196073
2.84606457;1.52941179
2.84606457;2.01960778
2.85002947;2.82352948
2.85415006;3.29411769
2.85837722;3.45098042
2.85837722;2.78431368
2.86235857;1.98039210
2.86640549;1.68627453
2.87061596;2.52941179
2.87061596;2.84313726
2.87463832;3.33333325
2.87876701;3.50980401
2.88273191;2.11764717
2.88686085;1.94117641
2.89098144;2.60784316
2.89098144;3.19607854
2.89507747;3.29411769
2.89908338;3.17647052
2.90330219;2.54901958
2.90330219;2.11764717
2.90732431;2.37254906
2.91152692;2.86274505
2.91565561;3.27450991
2.91565561;3.17647052
2.91962886;2.49019599
2.92375755;1.72549021
2.92790270;1.94117641
2.93202329;2.56862736
2.93627501;3.11764717
2.93627501;2.82352948
2.94027257;1.98039210
2.94431138;1.37254906
2.94844007;1.27450979
2.94844007;2.13725495
2.95251966;2.70588231
2.95659113;2.78431368
2.96067071;2.50980401
2.96067071;1.72549021
2.96479130;1.25490201
2.96902657;1.68627453
2.97294235;2.72549009
2.97710395;3.00000000
2.98113441;2.27450991
2.98113441;1.56862748
2.98543525;1.13725495
2.98957205;1.70588231
2.99354529;2.50980401
2.99354529;2.88235283
2.99769044;3.13725495
3.00176167;2.92156863
3.00587416;2.90196085
3.00587416;3.82352948
3.00992107;4.96078444
3.01393509;4.96078444
3.01393509;4.96078444
3.01806378;4.96078444
3.02219272;4.96078444
3.02630496;4.96078444
3.02630496;4.96078444
3.03054857;4.78431368
3.03439879;3.76470590
3.03847837;3.07843137
3.03847837;2.13725495
3.04277921;0.47058824
3.04669499;0.00000000
3.05089736;0.33333334
3.05089736;0.68627453
3.05503440;1.64705884
3.05918765;2.00000000
3.05918765;1.31372547
3.06316090;0.72549021
3.06728148;0.56862748
3.07141829;0.90196079
3.07141829;1.31372547
3.07555532;2.21568632
3.07949567;2.01960778
3.08356714;1.27450979
3.08356714;0.94117647
3.08763027;1.50980389
3.09179997;1.74509799
3.09596157;2.15686274
3.09596157;2.35294127
3.09994292;1.88235295
3.10403895;1.45098042
3.10403895;0.98039216
3.10811043;1.41176474
3.11238647;2.47058821
3.11651540;2.45098042
3.11651540;2.07843137
3.12053752;1.80392158
3.12466645;1.17647064
3.12881160;1.49019611
3.12881160;2.41176462
3.13278461;2.72549009
3.13686419;2.58823538
3.14098477;2.37254906
3.14098477;1.62745094
3.14508891;1.66666663
3.14912772;1.98039210
3.14912772;2.31372547
3.15323186;2.84313726
3.15749168;2.68627453
3.16124368;2.21568632
3.16124368;2.01960778
3.16544604;1.54901958
3.16939473;2.11764717
3.17359710;3.17647052
3.17359710;3.05882359
3.17771769;3.03921580
3.18187118;2.49019599
3.18599176;2.03921580
3.18994832;2.90196085
3.19406891;3.19607854
3.19406891;3.56862736
3.19822240;3.29411769
3.20235109;2.49019599
3.20644712;2.15686274
3.20644712;2.90196085
3.21038747;3.41176462
3.21461463;4.05882359
3.21865320;3.98039222
3.21865320;3.35294127
3.22271633;2.88235283
3.22682071;2.62745094
3.23102307;3.94117641
3.23515177;4.35294104
3.23922324;4.17647076
3.23922324;3.70588231
3.24341750;3.23529410
3.24734974;3.13725495
3.25149488;4.17647076
3.25149488;4.60784292
3.25568914;4.49019623
3.25969505;4.27450991
3.26379919;3.41176462
3.26379919;3.23529410
3.26793623;3.62745094
3.27200770;3.82352948
3.27623487;4.29411745
3.28016686;3.58823538
3.28441858;2.70588231
3.28441858;2.47058821
3.28845716;2.78431368
3.29261065;3.00000000
3.29667377;3.11764717
3.29667377;3.09803915
3.30072880;2.25490189
3.30471826;1.33333337
3.30892897;0.96078432
3.30892897;1.17647064
3.31287766;1.68627453
3.31697369;1.96078432
3.32110238;0.64705884
3.32525563;0.00000000
3.32936811;0.39215687
3.32936811;0.88235295
3.33329201;1.70588231
3.33752728;1.68627453
3.34169698;1.09803927
3.34169698;0.09803922
3.34574389;0.07843138
3.34967613;0.60784316
3.35387039;1.09803927
3.35387039;1.84313726
3.35808921;1.50980389
3.36216879;1.43137252
3.36628127;0.00000000
3.37028718;0.52941179
3.37437487;1.76470590
3.37437487;2.41176462
3.37845445;1.96078432
3.38257504;0.50980395
3.38660550;0.01960784
3.38660550;0.39215687
3.39075899;1.50980389
3.39485502;2.49019599
3.39916396;2.80392146
3.39916396;1.60784316
3.40307140;0.50980395
3.40714288;0.09803922
3.41121435;1.72549021
3.41559696;2.66666675
3.41963577;2.45098042
3.41963577;1.66666663
3.42344499;1.07843137
3.42761469;0.82352942
3.43180895;1.27450979
3.43180895;2.31372547
3.43589687;2.52941179
3.43987823;2.54901958
3.44397426;1.68627453
3.44397426;0.92156863
3.44812751;1.41176474
3.45219898;1.90196073
3.45632768;3.00000000
3.46018600;2.19607854
3.46440506;1.13725495
3.46440506;0.98039216
3.46846819;1.56862748
3.47265434;2.31372547
3.47675848;2.96078420
3.47675848;2.56862736
3.48091197;1.54901958
3.48501611;1.15686274
3.48914480;1.41176474
3.48914480;2.21568632
3.49312615;2.74509811
3.49741054;2.56862736
3.49741054;2.37254906
3.50139999;1.43137252
3.50550437;1.19607842
3.50964952;1.98039210
3.50964952;2.33333325
3.51379466;2.64705873
3.51785779;2.76470590
3.52189636;2.37254906
3.52189636;1.56862748
3.52589417;1.45098042
3.52997375;2.25490189
3.53426647;2.27450991
3.53426647;2.70588231
3.53835416;3.05882359
3.54241753;1.80392158
3.54241753;1.27450979
3.54631686;1.29411769
3.55050302;2.13725495
3.55463171;2.80392146
3.55463171;2.66666675
3.55871940;2.43137264
3.56290555;1.64705884
3.56689501;1.23529410
3.56689501;1.94117641
3.57103205;2.43137264
3.57516074;2.76470590
3.57946992;2.56862736
3.57946992;2.15686274
3.58351660;1.52941179
3.58744073;1.23529410
3.58744073;1.74509799
3.59156132;2.27450991
3.59573102;2.86274505
3.59986782;2.66666675
3.59986782;1.84313726
3.60379195;1.23529410
3.60797787;1.64705884
3.61195111;2.25490189
3.61195111;2.64705873
3.61615372;2.49019599
3.62011862;2.09803915
3.62441111;1.66666663
3.62441111;0.92156863
3.62838435;1.52941179
3.63251305;1.80392158
3.63251305;2.56862736
3.63648605;2.92156863
3.64065576;2.09803915
3.64484191;1.27450979
3.64484191;1.01960790
3.64889693;1.82352936
3.65293574;2.41176462
3.65703988;2.74509811
3.65703988;2.47058821
3.66125870;1.88235295
3.66534662;1.54901958
3.66922140;1.47058821
3.66922140;1.96078432
3.67339921;2.37254906
3.67749524;3.07843137
3.67749524;2.72549009
3.68160772;1.86274505
3.68576932;1.31372547
3.68989801;2.09803915
3.68989801;2.66666675
3.69389558;2.68627453
3.69798350;2.88235283
3.70211220;2.13725495
3.70211220;1.82352936
3.70639658;1.49019611
3.71047640;1.94117641
3.71439195;3.11764717
3.71838164;3.05882359
3.72260046;1.76470590
3.72260046;1.00000000
3.72676206;0.72549021
3.73085809;1.62745094
3.73492932;1.94117641
3.73492932;2.29411769
3.73907447;1.72549021
3.74316239;1.03921568
3.74727464;0.50980395
3.74727464;0.78431374
3.75142002;1.27450979
3.75561428;1.90196073
3.75966930;1.64705884
3.76359320;0.62745100
3.76769733;0.15686275
3.76769733;0.76470590
3.77185893;1.31372547
3.77585673;1.76470590
3.78014112;1.78431368
3.78014112;0.74509805
3.78410602;0.01960784
3.78819370;0.09803922
3.79228973;0.90196079
3.79228973;1.43137252
3.79643488;1.68627453
3.80053091;1.49019611
3.80463505;1.23529410
3.80887866;2.37254906
3.81291723;3.98039222
3.81291723;4.96078444
3.81689858;4.96078444
3.82104373;4.96078444
3.82518888;4.96078444
3.82518888;4.96078444
3.82930136;4.96078444
3.83341360;4.88235283
3.83752608;3.92156863
3.83752608;2.05882359
3.84148264;0.01960784
3.84557056;0.00000000
3.84965014;0.00000000
3.85372162;0.27450982
3.85788321;0.94117647
3.85788321;0.00000000
3.86197090;0.00000000
3.86596870;0.00000000
3.87020397;0.07843138
3.87020397;0.00000000
3.87409520;0.43137255
3.87824845;1.11764705
3.88236904;0.09803922
3.88236904;0.00000000
3.88651419;0.00000000
3.89051199;0.01960784
3.89460778;0.88235295
3.89873672;0.88235295
3.90302920;0.00000000
3.90302920;0.00000000
3.90701866;0.03921569
3.91105747;0.01960784
3.91516161;0.52941179
3.91516161;1.07843137
3.91931486;0.54901963
3.92337823;0.00000000
3.92745781;0.00000000
3.92745781;0.23529412
3.93154550;0.52941179
3.93559241;0.68627453
3.93973756;0.03921569
3.94375157;0.00000000
3.94786406;0.03921569
3.94786406;0.21568628
3.95200920;0.39215687
3.95616245;0.70588237
3.96025038;0.62745100
3.96025038;0.00000000
3.96478868;0.00000000
3.96849966;0.21568628
3.97260380;0.92156863
3.97260380;1.31372547
3.97647882;1.54901958
3.98069763;0.92156863
3.98488379;0.00000000
3.98886514;0.43137255
3.99290371;1.15686274
3.99290371;1.64705884
3.99686861;1.66666663
4.00112009;0.90196079
4.00524902;0.00000000
4.00524902;0.29411766
4.00936937;1.21568632
4.01336718;1.84313726
4.01752043;2.19607854
4.01752043;1.80392158
4.02163315;1.35294116
4.02573729;0.80392158
4.02573729;0.90196079
4.02989864;1.90196073
4.03394556;2.43137264
4.03797626;2.98039222
4.03797626;2.54901958
4.04215384;1.35294116
4.04624987;1.05882359
4.05039501;1.84313726
4.05039501;2.92156863
4.05433559;3.29411769
4.05834961;3.03921580
4.06251907;2.64705873
4.06251907;1.76470590
4.06664801;1.70588231
4.07075214;2.49019599
4.07075214;2.74509811
4.07486486;3.05882359
4.07899332;2.68627453
4.08312225;1.78431368
4.08312225;1.19607842
4.08708715;1.29411769
4.09149456;1.76470590
4.09550858;2.01960778
4.09550858;2.07843137
4.09954691;1.70588231
4.10360241;0.52941179
4.10769796;0.00000000
4.10769796;0.49019608
4.11181068;0.82352942
4.11575079;1.11764705
4.11575079;0.92156863
4.11981392;0.07843138
4.12396765;0.00000000
4.12810421;0.03921569
4.12810421;0.80392158
4.13226604;1.23529410
4.13637018;0.94117647
4.14039230;0.45098040
4.14039230;0.00000000
4.14452124;0.01960784
4.14874029;0.33333334
4.15289354;0.62745100
4.15289354;0.62745100
4.15690756;0.50980395
4.16101980;0.00000000
4.16101980;0.00000000
4.16514063;0.03921569
4.16917086;0.41176471
4.17326689;0.80392158
4.17326689;0.74509805
4.17747784;0.70588237
4.18140173;0.43137255
4.18558788;0.00000000
4.18558788;0.25490198
4.18961811;0.72549021
4.19361591;0.50980395
4.19776917;1.17647064
4.20202065;0.37254903
4.20610857;0.00000000
4.20610857;0.35294119
4.21018028;0.74509805
4.21427631;1.41176474
4.21852779;1.39215684
4.21852779;0.90196079
4.22248459;0.23529412
4.22662163;0.01960784
4.23061085;0.43137255
4.23061085;0.74509805
4.23468256;1.15686274
4.23869658;1.43137252
4.24290705;0.05882353
4.24700308;0.15686275
4.25108290;0.68627453
4.25108290;0.96078432
4.25508881;1.29411769
4.25919294;1.29411769
4.26340342;0.47058824
4.26340342;0.05882353
4.26737642;0.35294119
4.27153015;0.86274511
4.27564240;1.27450979
4.27564240;1.52941179
4.27976274;1.00000000
4.28373623;0.29411766
4.28785658;0.80392158
4.29203463;1.17647064
4.29617167;1.54901958
4.29617167;1.66666663
4.30015278;1.07843137
4.30441284;0.56862748
4.30850029;0.50980395
4.30850029;1.11764705
4.31251478;1.60784316
4.31656981;1.84313726
4.32063293;1.86274505
4.32063293;0.94117647
4.32467985;0.37254903
4.32890654;0.56862748
4.33302736;1.70588231
4.33700848;2.00000000
4.34111261;1.56862748
4.34111261;0.70588237
4.34525776;0.35294119
4.34940290;1.01960790
4.35353994;1.58823526
4.35353994;1.80392158
4.35763597;2.01960778
4.36168289;1.27450979
4.36578703;0.90196079
4.36578703;0.74509805
4.36996508;1.37254906
4.37400389;2.09803915
4.37799311;2.03921580
4.38213825;1.52941179
4.38610315;0.84313726
4.38610315;0.90196079
4.39035511;1.60784316
4.39437723;2.05882359
4.39850616;2.39215684
4.39850616;2.11764717
4.40262651;1.52941179
4.40672255;0.82352942
4.41070366;1.27450979
4.41070366;1.98039210
4.41484070;2.31372547
4.41904354;2.50980401
4.42327023;1.09803927
4.42716980;0.96078432
4.43140507;1.92156863
4.43140507;2.33333325
4.43532085;2.58823538
4.43933487;2.49019599
4.44347191;1.54901958
4.44347191;1.00000000
4.44762516;1.47058821
4.45180321;2.07843137
4.45580101;2.52941179
4.45580101;2.58823538
4.45999527;2.37254906
4.46399260;1.62745094
4.46811342;1.64705884
4.47220945;1.98039210
4.47637892;2.27450991
4.47637892;2.60784316
4.48035240;2.09803915
4.48444843;1.43137252
4.48844576;1.21568632
4.48844576;1.88235295
4.49258280;2.29411769
4.49670362;2.88235283
4.50077486;2.96078420
4.50077486;2.09803915
4.50497723;1.35294116
4.50911427;1.68627453
4.51324320;3.03921580
4.51736355;3.52941179
4.52136135;2.90196085
4.52136135;1.86274505
4.52549028;2.19607854
4.52961874;2.11764717
4.53391171;3.19607854
4.53391171;4.23529434
4.53788471;3.54901958
4.54201365;2.39215684
4.54612589;2.52941179
4.54612589;3.17647052
4.55012369;3.58823538
4.55424404;3.09803915
4.55424404;2.98039222
4.55827475;2.56862736
4.56240320;1.92156863
4.56649923;1.72549021
4.56649923;2.21568632
4.57058716;2.27450991
4.57472420;2.64705873
4.57883644;2.41176462
4.57883644;1.80392158
4.58294058;1.29411769
4.58698750;0.92156863
4.59114885;1.29411769
4.59114885;2.27450991
4.59538412;3.11764717
4.59940672;2.70588231
4.59940672;1.33333337
4.60353518;0.50980395
4.60750866;0.80392158
4.61163712;1.66666663
4.61163712;2.62745094
4.61569214;2.54901958
4.61981297;2.09803915
4.62390900;1.07843137
4.62390900;0.49019608
4.62807035;0.80392158
4.63206005;1.52941179
4.63618040;2.25490189
4.63618040;2.27450991
4.64012909;1.76470590
4.64436436;1.43137252
4.64436436;1.80392158
4.64843559;3.13725495
4.65267086;4.60784292
4.65676689;4.96078444
4.65676689;4.96078444
4.66073179;4.96078444
4.66486073;4.96078444
4.66898108;4.96078444
4.66898108;4.96078444
4.67311001;4.96078444
4.67710781;4.74509811
4.68123627;2.96078420
4.68123627;0.78431374
4.68528318;0.00000000
4.68940401;0.33333334
4.68940401;0.56862748
4.69363117;0.78431374
4.69759607;1.25490201
4.70161819;0.52941179
4.70161819;0.00000000
4.70584536;0.03921569
4.70984316;0.74509805
4.71402073;0.96078432
4.71402073;1.49019611
4.71800232;1.17647064
4.72216368;0.39215687
4.72639084;0.13725491
4.73046207;0.80392158
4.73434544;1.39215684
4.73434544;1.70588231
4.73864603;1.21568632
4.74275017;0.23529412
4.74679708;0.17647059
4.74679708;0.90196079
4.75073719;1.03921568
4.75497246;1.64705884
4.75906849;1.47058821
4.75906849;1.21568632
4.76318932;0.68627453
4.76712132;0.66666669
4.77138138;1.45098042
4.77550983;2.05882359
4.77966356;1.94117641
4.77966356;1.37254906
4.78364468;0.72549021
4.78775692;0.96078432
4.79192686;1.47058821
4.79192686;1.70588231
4.79602289;2.19607854
4.80015135;2.31372547
4.80408382;1.84313726
4.80408382;1.09803927
4.80816317;1.09803927
4.81219387;1.52941179
4.81628180;2.94117641
4.82032013;2.52941179
4.82448196;1.45098042
4.82448196;1.25490201
4.82861042;2.11764717
4.83275557;2.64705873
4.83703995;2.98039222
4.83703995;2.96078420
4.84098053;2.49019599
4.84514999;1.60784316
4.84925461;1.64705884
4.84925461;2.50980401
4.85337496;3.33333325
4.85750389;3.98039222
4.86150122;2.41176462
4.86560583;2.66666675
4.87004566;3.11764717
4.87004566;3.41176462
4.87369919;3.86274505
4.87779522;4.39215708
4.88189936;4.35294104
4.88189936;3.68627453
4.88602018;2.96078420
4.89015722;3.52941179
4.89417124;4.19607830
4.89417124;4.70588255
4.89844751;4.90196085
4.90234661;3.96078420
4.90681124;3.54901958
4.91074371;4.21568632
4.91476583;4.62745094
4.91476583;4.72549009
4.91888618;4.35294104
4.92308903;3.33333325
4.92714405;2.64705873
4.92714405;3.11764717
4.93113327;3.58823538
4.93522930;3.64705873
4.93935823;3.50980401
4.93935823;2.84313726
4.94335604;1.92156863
4.94734526;1.41176474
4.95163822;2.15686274
4.95568466;2.49019599
4.95976448;2.25490189
4.95976448;1.29411769
4.96384430;0.54901963
4.96803856;0.39215687
4.97215891;0.96078432
4.97215891;1.43137252
4.97628784;1.92156863
4.98040819;1.90196073
4.98452902;0.84313726
4.98452902;0.00000000
4.98851824;0.54901963
4.99264717;1.47058821
4.99676752;1.96078432
5.00072432;1.05882359
5.00479603;0.29411766
5.00479603;0.23529412
5.00882626;1.27450979
5.01318455;1.96078432
5.01722336;2.13725495
5.01722336;1.72549021
5.02117157;0.82352942
5.02533340;0.17647059
5.02942944;0.58823532
5.02942944;1.37254906
5.03364801;1.90196073
5.03777695;1.96078432
5.03777695;1.78431368
5.04177475;1.00000000
5.04588699;0.54901963
5.04999113;1.25490201
5.04999113;2.03921580
5.05398083;2.21568632
5.05818319;2.25490189
5.06223011;1.60784316
5.06223011;0.96078432
5.06635857;0.96078432
5.07043028;1.78431368
5.07440329;2.23529410
5.07440329;2.56862736
5.07865477;2.21568632
5.08271837;1.43137252
5.08271837;0.96078432
5.08678150;1.17647064
5.09069729;2.01960778
5.09485865;2.49019599
5.09485865;2.66666675
5.09905291;2.39215684
5.10327196;1.52941179
5.10742521;1.21568632
5.10742521;1.74509799
5.11151314;2.11764717
5.11550236;2.39215684
5.11962318;2.56862736
5.11962318;1.88235295
5.12375212;1.25490201
5.12772512;0.98039216
5.12772512;1.76470590
5.13182926;2.29411769
5.13591719;2.74509811
5.13995552;2.60784316
5.13995552;1.70588231
5.14409256;1.09803927
5.14821339;1.43137252
5.15248108;2.15686274
5.15248108;2.56862736
5.15643787;2.80392146
5.16069794;2.64705873
5.16464663;1.78431368
5.16464663;1.15686274
5.16876698;1.66666663
5.17287922;2.41176462
5.17287922;2.82352948
5.17702436;2.68627453
5.18100595;2.19607854
5.18513441;1.25490201
5.18513441;0.98039216
5.18925524;1.96078432
5.19340849;2.45098042
5.19756985;3.52941179
5.19756985;3.09803915
5.20145321;1.98039210
5.20559025;2.29411769
5.20953035;1.86274505
5.21374941;2.60784316
5.21783686;3.37254906
5.21783686;3.52941179
5.22196579;2.29411769
5.22608662;1.50980389
5.23010874;1.70588231
5.23010874;2.21568632
5.23417187;3.33333325
5.23852205;3.70588231
5.24254417;3.21568632
5.24254417;2.37254906
5.24663210;1.31372547
5.25075245;1.49019611
5.25472546;3.21568632
5.25884628;3.19607854
5.26298332;2.49019599
5.26298332;1.98039210
5.26699734;1.68627453
5.27094603;2.13725495
5.27511549;2.62745094
5.27511549;3.03921580
5.27909660;2.82352948
5.28321743;1.98039210
5.28740358;1.74509799
5.28740358;2.11764717
5.29142570;2.68627453
5.29565287;3.25490189
5.29975700;2.19607854
5.30387783;1.35294116
5.30786705;1.37254906
5.30786705;2.05882359
5.31195498;2.62745094
5.31601810;3.25490189
5.32010603;2.96078420
5.32010603;1.78431368
5.32427549;1.27450979
5.32823229;1.56862748
5.33244324;2.13725495
5.33244324;2.62745094
5.33657169;3.07843137
5.34071684;2.50980401
5.34464931;1.33333337
5.34881067;1.74509799
5.35293961;2.23529410
5.35293961;2.80392146
5.35707664;3.15686274
5.36108255;2.29411769
5.36531782;1.84313726
5.36531782;1.98039210
5.36931515;2.37254906
5.37342787;2.84313726
5.37744188;3.58823538
5.37744188;3.50980401
5.38152122;2.33333325
5.38552713;1.52941179
5.38974619;2.66666675
5.39393234;3.47058821
5.39793825;3.90196085
5.39793825;3.31372547
5.40205860;2.27450991
5.40615463;1.80392158
5.41030788;2.52941179
5.41030788;2.92156863
5.41428947;3.60784316
5.41843462;3.86274505
5.42255497;2.74509811
5.42255497;1.56862748
5.42670012;1.60784316
5.43084526;2.45098042
5.43500710;2.80392146
5.43903732;2.90196085
5.44315815;1.80392158
5.44315815;1.27450979
5.44719648;1.56862748
5.45148945;2.29411769
5.45542145;2.62745094
5.45542145;3.15686274
5.45948458;2.90196085
5.46347427;1.56862748
5.46770144;1.15686274
5.46770144;1.94117641
5.47174788;2.49019599
5.47587681;2.43137264
5.47998095;2.50980401
5.48400354;1.49019611
5.48813200;1.09803927
5.48813200;1.56862748
5.49224424;2.45098042
5.49650431;2.80392146
5.50056744;2.60784316
5.50056744;1.98039210
5.50444221;2.07843137
5.50852203;2.68627453
5.51270819;3.96078420
5.51270819;4.96078444
5.51677942;4.96078444
5.52083445;4.96078444
5.52083445;4.96078444
5.52503729;4.96078444
5.52912474;4.96078444
5.53326178;4.96078444
5.53326178;4.96078444
5.53739071;4.03921556
5.54146194;2.33333325
5.54548407;0.50980395
5.54548407;0.00000000
5.54964590;0.62745100
5.55376625;1.00000000
5.55775595;1.19607842
5.55775595;1.27450979
5.56176996;0.41176471
5.56584120;0.00000000
5.56584120;0.56862748
5.57009315;1.03921568
5.57403326;1.64705884
5.57832623;1.50980389
5.57832623;1.45098042
5.58234835;0.98039216
5.58647728;0.45098040
5.59064674;0.62745100
5.59064674;0.96078432
5.59461164;1.62745094
5.59875679;2.11764717
5.60284472;1.56862748
5.60284472;0.50980395
5.60702276;0.29411766
5.61112690;1.09803927
5.61112690;1.64705884
5.61514091;2.03921580
5.61926126;2.00000000
5.62327576;1.21568632
5.62327576;0.58823532
5.62727308;0.62745100
5.63131189;1.37254906
5.63557148;2.13725495
5.63557148;2.47058821
5.63956928;1.96078432
5.64382935;1.05882359
5.64801550;0.86274511
5.64801550;1.72549021
5.65199661;2.23529410
5.65614176;2.66666675
5.65614176;2.76470590
5.66024590;2.17647052
5.66437483;1.49019611
5.66834784;1.19607842
5.66834784;1.90196073
5.67241955;2.47058821
5.67659712;2.96078420
5.68075037;2.84313726
5.68075037;2.09803915
5.68469095;1.50980389
5.68893433;2.00000000
5.69278479;2.49019599
5.69278479;2.92156863
5.69702816;3.60784316
5.70109940;3.56862736
5.70109940;2.31372547
5.70524454;2.88235283
5.70938969;3.09803915
5.71349382;2.94117641
5.71349382;3.35294127
5.71749163;4.27450991
5.72161245;4.19607830
5.72575760;3.03921580
5.72575760;2.45098042
5.72994375;2.90196085
5.73399878;3.33333325
5.73800468;4.96078444
5.74212503;4.05882359
5.74623728;3.29411769
5.74623728;3.07843137
5.75035000;3.88235283
5.75422478;4.50980377
5.75842714;4.86274529
5.75842714;4.52941179
5.76247406;3.68627453
5.76673365;3.58823538
5.77080536;4.00000000
5.77080536;3.94117641
5.77485228;4.15686274
5.77900553;4.74509811
5.78314257;3.19607854
5.78726292;2.94117641
5.79149008;3.66666675
5.79149008;3.72549009
5.79552031;3.70588231
5.79964113;3.09803915
5.80377817;2.19607854
5.80377817;1.45098042
5.80775928;1.82352936
5.81188011;2.41176462
5.81595945;2.49019599
5.81595945;2.41176462
5.82003927;2.11764717
5.82405329;1.09803927
5.82816553;0.56862748
5.83233547;1.03921568
5.83646393;1.60784316
5.83646393;1.90196073
5.84057665;1.29411769
5.84435320;0.11764706
5.84857988;0.03921569
5.84857988;0.56862748
5.85272503;1.60784316
5.85682106;2.11764717
5.86100721;1.78431368
5.86100721;0.60784316
5.86495590;0.03921569
5.86910915;0.66666669
5.87336922;1.94117641
5.87748957;2.09803915
5.88143015;1.76470590
5.88143015;0.64705884
5.88544416;0.25490198
5.88970375;1.09803927
5.89374256;2.09803915
5.89374256;2.39215684
5.89787149;2.21568632
5.90192652;1.29411769
5.90594864;0.62745100
5.90594864;0.76470590
5.91016769;1.50980389
5.91437817;1.96078432
5.91837597;2.13725495
5.92229176;1.25490201
5.92649412;0.54901963
5.92649412;0.76470590
5.93074608;1.50980389
5.93471909;2.21568632
5.93883944;2.35294127
5.93883944;1.76470590
5.94298458;0.94117647
5.94708061;0.70588237
5.95122576;1.27450979
5.95122576;1.96078432
5.95520735;2.54901958
5.95936871;2.52941179
5.96344852;0.86274511
5.96759367;0.58823532
5.97156668;1.39215684
5.97156668;2.35294127
5.97570372;2.49019599
5.97969294;2.25490189
5.98390388;1.43137252
5.98390388;0.96078432
5.98799992;1.39215684
5.99228430;2.07843137
5.99624109;2.23529410
5.99624109;2.64705873
6.00036144;2.31372547
6.00444126;1.35294116
6.00838137;1.49019611
6.01251030;2.07843137
6.01663065;2.58823538
6.01663065;2.62745094
6.02077579;2.00000000
6.02479839;1.45098042
6.02895975;1.43137252
6.02895975;1.96078432
6.03307199;2.80392146
6.03720093;3.00000000
6.04128075;2.33333325
6.04128075;2.70588231
6.04540110;1.60784316
6.04950523;1.29411769
6.04950523;1.74509799
6.05363417;3.09803915
6.05777121;3.90196085
6.06166220;2.64705873
6.06166220;1.23529410
6.06584835;1.01960790
6.06995249;1.70588231
6.07403231;2.64705873
6.07403231;3.72549009
6.07799721;3.68627453
6.08224869;2.54901958
6.08631992;1.60784316
6.08631992;1.13725495
6.09024429;2.00000000
6.09442997;2.64705873
6.09442997;3.27450991
6.09850168;2.94117641
6.10260582;2.27450991
6.10673475;1.27450979
6.10673475;1.47058821
6.11087132;2.01960778
6.11486101;2.70588231
6.11898184;2.86274505
6.11898184;2.62745094
6.12311840;1.94117641
6.12734556;1.66666663
6.13148260;1.84313726
6.13148260;2.25490189
6.13540649;2.78431368
6.13944530;2.92156863
6.13944530;2.05882359
6.14374590;1.47058821
6.14776850;1.56862748
6.15175772;2.43137264
6.15175772;2.56862736
6.15577173;2.78431368
6.15988445;2.90196085
6.16411114;1.98039210
6.16411114;1.23529410
6.16809273;1.72549021
6.17231178;2.39215684
6.17650604;2.80392146
6.17650604;3.23529410
6.18063450;2.92156863
6.18477154;2.15686274
6.18477154;1.43137252
6.18873644;2.09803915
6.19287348;3.17647052
6.19699383;3.33333325
6.19699383;3.31372547
6.20104885;2.84313726
6.20498943;2.00000000
6.20926571;1.66666663
6.20926571;2.62745094
6.21332884;3.54901958
6.21744108;3.31372547
6.22134876;3.41176462
6.22134876;2.52941179
6.22548580;1.43137252
6.22977018;2.37254906
6.22977018;3.19607854
6.23388243;3.39215684
6.23786402;3.39215684
6.24202538;2.72549009
6.24202538;2.13725495
6.24610519;1.92156863
6.25025034;3.11764717
6.25437880;3.78431368
6.25437880;3.64705873
6.25849962;3.33333325
6.26241541;2.54901958
6.26642942;1.78431368
6.27060747;2.49019599
6.27486706;3.11764717
6.27486706;3.21568632
6.27881575;3.37254906
6.28288698;2.94117641
6.28695869;1.92156863
6.28695869;2.03921580
6.29116917;2.49019599
6.29519987;2.82352948
6.29947615;3.11764717
6.29947615;2.76470590
6.30350637;1.60784316
6.30764341;0.98039216
6.31162453;2.45098042
6.31575346;2.90196085
6.31986570;2.84313726
6.31986570;1.94117641
6.32393742;1.15686274
6.32791042;0.88235295
6.33191633;1.94117641
6.33191633;2.78431368
6.33624172;3.00000000
6.34029675;2.74509811
6.34442568;1.64705884
6.34442568;1.03921568
6.34834146;1.54901958
6.35252714;2.39215684
6.35680342;2.45098042
6.36079311;1.98039210
6.36487293;1.23529410
6.36487293;0.98039216
6.36885405;1.74509799
6.37299109;2.78431368
6.37720156;3.96078420
6.37720156;4.58823538
6.38121557;4.72549009
6.38545942;4.96078444
6.38939953;4.96078444
6.38939953;4.96078444
6.39358568;4.96078444
6.39769793;4.96078444
6.40173674;4.86274529
6.40567684;3.62745094
6.40987158;2.84313726
6.40987158;2.01960778
6.41403294;1.64705884
6.41813707;1.19607842
6.42223310;0.39215687
6.42223310;0.00000000
6.42635345;0.00000000
6.43048239;0.54901963
6.43454552;1.41176474
6.43454552;1.74509799
6.43851900;1.64705884
6.44263124;1.03921568
6.44684172;0.45098040
6.45090532;1.05882359
6.45500088;1.72549021
6.45500088;2.00000000
6.45912170;1.78431368
6.46319294;0.90196079
6.46732187;0.15686275
6.46732187;0.74509805
6.47137690;1.84313726
6.47525167;2.33333325
6.47947884;2.25490189
6.47947884;1.66666663
6.48360777;0.70588237
6.48772812;0.70588237
6.49171782;2.17647052
6.49583817;2.45098042
6.49998331;2.37254906
6.49998331;1.62745094
6.50409555;1.39215684
6.50826550;1.58823526
6.51238585;1.94117641
6.51238585;2.76470590
6.51626921;2.68627453
6.52043056;2.92156863
6.52467394;2.03921580
6.52467394;1.47058821
6.52872896;1.88235295
6.53273487;2.45098042
6.53660154;3.39215684
6.54088593;2.15686274
6.54508829;2.27450991
6.54508829;2.25490189
6.54911089;2.29411769
6.55323124;2.56862736
6.55736017;3.62745094
6.55736017;4.25490189
6.56135798;3.03921580
6.56546211;1.90196073
6.56974649;1.82352936
6.56974649;2.33333325
6.57383442;3.66666675
6.57777452;4.47058821
6.57777452;4.11764717
6.58175611;2.90196085
6.58610582;2.00000000
6.59011173;2.50980401
6.59011173;3.21568632
6.59417486;3.86274505
6.59827900;4.03921556
6.60218668;4.05882359
6.60218668;3.62745094
6.60645485;3.17647052
6.61057520;3.52941179
6.61469603;3.66666675
6.61469603;4.50980377
6.61869383;4.78431368
6.62278128;4.05882359
6.62278128;3.13725495
6.62695932;3.60784316
6.63109636;4.29411745
6.63524151;4.62745094
6.63524151;4.86274529
6.63948488;4.43137264
6.64339256;3.80392146
6.64746380;3.17647052
6.64746380;3.41176462
6.65145350;3.49019599
6.65559053;4.31372547
6.65960455;4.72549009
6.65960455;3.60784316
6.66376591;2.35294127
6.66800117;1.92156863
6.66800117;2.98039222
6.67196608;3.05882359
6.67611122;2.96078420
6.68020725;2.50980401
6.68020725;2.11764717
6.68429518;1.64705884
6.68824387;1.00000000
6.69237232;1.27450979
6.69237232;1.50980389
6.69646835;2.25490189
6.70056438;1.86274505
6.70473433;0.58823532
6.70473433;0.00000000
6.70878935;0.76470590
6.71298361;1.54901958
6.71298361;1.68627453
6.71712875;1.80392158
6.72110987;1.23529410
6.72536182;0.72549021
6.72536182;0.21568628
6.72936773;0.50980395
6.73339796;0.76470590
6.73763323;1.68627453
6.73763323;2.39215684
6.74160624;1.21568632
6.74569416;0.31372550
6.74986410;1.31372547
6.75387812;2.13725495
6.75796604;2.13725495
6.75796604;1.68627453
6.76201248;0.84313726
6.76618242;0.50980395
6.77024555;1.09803927
6.77024555;1.45098042
6.77447271;2.27450991
6.77847862;2.35294127
6.78259897;2.11764717
6.78259897;1.13725495
6.78672791;0.25490198
6.79088926;1.29411769
6.79499388;2.35294127
6.79910612;2.52941179
6.80325937;1.47058821
6.80325937;0.90196079
6.80738020;1.07843137
6.81157446;1.60784316
6.81549025;2.54901958
6.81549025;2.58823538
6.81962681;2.29411769
6.82359171;1.52941179
6.82776976;1.00000000
6.82776976;1.54901958
6.83172655;2.05882359
6.83596182;2.58823538
6.84004974;2.37254906
6.84409666;1.45098042
6.84828281;0.86274511
6.84828281;1.94117641
6.85236216;2.60784316
6.85665464;2.96078420
6.86062813;2.80392146
6.86062813;1.82352936
6.86473227;1.84313726
6.86869717;1.88235295
6.87282562;2.39215684
6.87282562;2.54901958
6.87697124;3.07843137
6.88098526;3.11764717
6.88499117;1.23529410
6.88907862;1.82352936
6.89318275;2.41176462
6.89318275;3.11764717
6.89744282;3.29411769
6.90148163;2.41176462
6.90543842;1.41176474
6.90543842;1.01960790
6.90957499;1.72549021
6.91377783;2.31372547
6.91800451;2.80392146
6.91800451;2.82352948
6.92198610;1.90196073
6.92612314;1.25490201
6.93021917;1.88235295
6.93438053;2.19607854
6.93850136;2.50980401
6.93850136;2.31372547
6.94245768;1.41176474
6.94661140;1.00000000
6.95068264;1.62745094
6.95068264;2.35294127
6.95468855;2.64705873
6.95884991;2.62745094
6.96293783;1.84313726
6.96293783;1.19607842
6.96707487;1.05882359
6.97105598;1.92156863
6.97520924;2.76470590
6.97940397;2.76470590
6.98350811;2.01960778
6.98350811;1.31372547
6.98762035;1.31372547
6.99150324;2.01960778
6.99559927;2.56862736
6.99559927;2.84313726
6.99967098;2.54901958
7.00407791;1.74509799
7.00804281;1.23529410
7.00804281;1.86274505
7.01202440;2.52941179
7.01604652;2.96078420
7.02024078;2.39215684
7.02446795;1.54901958
7.02843285;1.39215684
7.02843285;2.01960778
7.03246355;2.66666675
7.03655100;3.07843137
7.04077816;3.29411769
7.04077816;2.68627453
7.04484987;2.07843137
7.04898643;1.94117641
7.05309916;2.50980401
7.05309916;3.07843137
7.05726051;3.45098042
7.06136465;3.07843137
7.06136465;2.31372547
7.06541157;2.09803915
7.06938457;2.74509811
7.07351351;3.25490189
7.07351351;3.50980401
7.07765865;3.52941179
7.08150864;3.00000000
7.08584261;2.31372547
7.08584261;2.09803915
7.08993864;2.82352948
7.09390354;3.29411769
7.09808111;3.58823538
7.09808111;3.25490189
7.10214472;2.58823538
7.10671568;1.64705884
7.10671568;1.58823526
7.11050034;2.33333325
7.11458015;2.76470590
7.11866760;2.86274505
7.11866760;2.39215684
7.12263250;1.68627453
7.12677765;1.31372547
7.13086557;1.86274505
7.13086557;2.25490189
7.13489628;2.56862736
7.13905764;2.70588231
7.14303064;2.05882359
7.14303064;1.29411769
7.14718390;1.13725495
7.15146875;1.76470590
7.15146875;2.23529410
7.15539265;2.54901958
7.15940666;2.84313726
7.16358471;1.74509799
7.16358471;0.92156863
7.16777897;1.05882359
7.17186642;2.01960778
7.17599535;2.35294127
7.17599535;2.68627453
7.18007517;2.35294127
7.18423653;2.19607854
7.18829966;2.01960778
7.18829966;3.41176462
7.19237947;4.74509811
7.19645882;4.96078444
7.19645882;4.96078444
7.20051384;4.96078444
7.20468378;4.96078444
7.20855045;4.96078444
7.20855045;4.96078444
7.21285105;4.96078444
7.21694708;4.80392170
7.22096968;2.92156863
7.22096968;0.54901963
7.22506571;0.01960784
7.22915316;0.35294119
7.23351145;0.29411766
7.23351145;0.21568628
7.23748446;0.29411766
7.24161339;0.13725491
7.24161339;0.31372550
7.24556208;0.43137255
7.24970722;0.84313726
7.25382757;1.45098042
7.25382757;1.70588231
7.25795650;1.41176474
7.26196241;0.88235295
7.26600885;0.56862748
7.26600885;0.74509805
7.27009678;1.37254906
7.27418470;2.25490189
7.27847719;2.13725495
7.28249121;0.82352942
7.28642368;0.54901963
7.28642368;1.27450979
7.29070807;1.82352936
7.29488611;2.33333325
7.29888344;2.62745094
7.29888344;2.33333325
7.30300426;0.96078432
7.30713272;0.68627453
7.31124544;1.66666663
7.31124544;1.80392158
7.31522655;2.13725495
7.31940460;2.80392146
7.32343483;1.33333337
7.32745743;1.13725495
7.33166790;2.03921580
7.33166790;2.56862736
7.33566570;2.68627453
7.33979464;2.72549009
7.34364462;2.15686274
7.34364462;1.17647064
7.34794569;1.39215684
7.35195971;2.41176462
7.35604715;3.13725495
7.35604715;3.05882359
7.36021709;2.76470590
7.36434603;2.15686274
7.36842537;2.11764717
7.37239027;3.11764717
7.37671566;3.76470590
7.37671566;3.74509811
7.38077068;2.96078420
7.38484240;2.33333325
7.38871717;2.41176462
7.38871717;2.80392146
7.39288664;3.56862736
7.39718771;3.82352948
7.40121794;3.78431368
7.40121794;3.25490189
7.40533066;2.62745094
7.40920544;3.19607854
7.41346502;4.45098019
7.41758585;4.96078444
7.42164898;4.25490189
7.42164898;3.31372547
7.42573690;3.21568632
7.42983294;4.05882359
7.43394518;4.09803915
7.43394518;4.84313726
7.43800831;4.96078444
7.44199800;4.25490189
7.44616747;3.21568632
7.44616747;3.31372547
7.45024729;3.98039222
7.45431042;4.41176462
7.45832443;4.58823538
7.46255970;3.62745094
7.46671295;2.72549009
7.46671295;2.94117641
7.47085810;3.54901958
7.47497892;3.56862736
7.47891903;3.66666675
7.47891903;3.15686274
7.48306417;2.00000000
7.48718500;1.25490201
7.49134636;1.84313726
7.49134636;2.33333325
7.49529505;2.33333325
7.49942398;2.27450991
7.50379848;0.72549021
7.50786972;0.50980395
7.51185083;1.23529410
7.51185083;1.66666663
7.51579952;1.74509799
7.52002668;1.37254906
7.52424574;0.37254903
7.52424574;0.17647059
7.52826786;0.64705884
7.53217554;1.00000000
7.53626299;1.35294116
7.53626299;1.66666663
7.54043293;1.35294116
7.54461098;0.50980395
7.54861689;1.33333337
7.55270433;1.47058821
7.55684948;1.94117641
7.55684948;2.21568632
7.56100321;1.49019611
7.56511545;0.92156863
7.56921959;0.80392158
7.56921959;1.31372547
7.57322550;1.74509799
7.57739496;1.76470590
7.58149099;1.84313726
7.58149099;1.33333337
7.58558702;0.72549021
7.58969116;1.07843137
7.58969116;1.60784316
7.59382010;1.86274505
7.59772778;2.11764717
7.60198736;1.84313726
7.60198736;1.19607842
7.60593605;0.68627453
7.61011410;1.31372547
7.61430025;1.68627453
7.61430025;2.25490189
7.61842871;2.45098042
7.62238550;1.70588231
7.62640810;0.92156863
7.62640810;0.88235295
7.63052845;1.60784316
7.63456726;2.33333325
7.63456726;2.60784316
7.63858128;2.47058821
7.64275074;1.70588231
7.64683867;1.01960790
7.64683867;1.23529410
7.65102482;1.86274505
7.65509653;2.68627453
7.65936422;2.78431368
7.65936422;2.50980401
7.66337013;1.52941179
7.66747427;1.11764705
7.67162800;1.84313726
7.67162800;2.54901958
7.67557621;2.68627453
7.67970514;2.92156863
7.67970514;1.94117641
7.68385029;1.45098042
7.68793821;1.27450979
7.69198513;2.35294127
7.69198513;2.72549009
7.69592524;2.92156863
7.70017672;2.54901958
7.70418262;1.60784316
7.70418262;0.92156863
7.70842648;1.50980389
7.71244049;2.35294127
7.71657705;3.03921580
7.71657705;3.15686274
7.72073078;2.37254906
7.72485924;1.52941179
7.72485924;1.07843137
7.72884893;1.92156863
7.73295307;2.35294127
7.73701620;2.92156863
7.73701620;3.27450991
7.74122715;2.35294127
7.74536419;1.72549021
7.74933720;1.58823526
7.74933720;2.09803915
7.75333500;2.66666675
7.75739813;3.00000000
7.76155138;2.76470590
7.76155138;1.74509799
7.76560640;1.31372547
7.76970243;1.74509799
7.76970243;2.33333325
7.77391291;2.74509811
7.77810717;3.05882359
7.78222799;2.78431368
7.78222799;1.82352936
7.78633213;1.07843137
7.79036283;1.84313726
7.79445839;2.62745094
7.79445839;3.17647052
7.79874325;3.17647052
7.80271626;2.17647052
7.80685329;1.60784316
7.81099844;2.15686274
7.81509447;2.41176462
7.81509447;2.84313726
7.81903458;2.98039222
7.82315540;2.21568632
7.82730055;1.33333337
7.82730055;1.76470590
7.83137989;2.31372547
7.83538580;2.82352948
7.83950663;2.98039222
7.83950663;2.31372547
7.84354496;1.66666663
7.84769821;1.62745094
7.85196638;2.92156863
7.85600519;2.94117641
7.86008453;3.03921580
7.86008453;2.50980401
7.86421347;1.52941179
7.86831760;1.23529410
7.87254477;2.60784316
7.87254477;3.01960778
7.87642765;3.64705873
7.88048267;2.60784316
7.88465261;2.54901958
7.88465261;2.17647052
7.88875675;1.76470590
7.89269686;1.92156863
7.89695692;4.11764717
7.90101194;3.11764717
7.90514088;1.76470590
7.90514088;1.50980389
7.90903997;2.07843137
7.91338205;2.88235283
7.91745329;4.00000000
7.91745329;3.90196085
7.92160654;2.86274505
7.92571068;2.09803915
7.92970848;1.62745094
7.92970848;2.41176462
7.93382072;3.52941179
7.93795776;3.78431368
7.94206190;2.70588231
7.94600248;2.21568632
7.95001650;2.33333325
7.95001650;2.80392146
7.95425987;3.35294127
7.95843792;3.80392146
7.96243572;3.56862736
7.96243572;2.52941179
7.96631861;1.80392158
7.97054577;2.56862736
7.97474003;3.09803915
7.97474003;3.41176462
7.97868872;3.27450991
7.98281717;2.39215684
7.98694611;1.82352936
7.99108315;2.35294127
7.99517918;2.31372547
7.99517918;2.80392146
7.99940586;2.82352948
8.00341225;1.70588231
8.00749969;0.98039216
8.00749969;1.58823526
8.01153851;2.35294127
8.01569176;2.84313726
8.01980400;3.01960778
8.01980400;2.09803915
8.02392483;1.45098042
8.02802086;1.45098042
8.03183842;2.25490189
8.03607368;2.92156863
8.04032516;2.70588231
8.04032516;1.88235295
8.04433918;1.21568632
8.04846764;1.05882359
8.05258846;1.94117641
8.05258846;2.74509811
8.05657005;2.74509811
8.06082153;3.33333325
8.06494999;3.43137264
8.06494999;3.52941179
8.06884956;4.96078444
8.07292080;4.96078444
8.07706642;4.96078444
8.08129311;4.96078444
8.08533192;4.96078444
8.08533192;4.96078444
8.08941174;4.96078444
8.09335995;3.98039222
8.09755421;2.86274505
8.09755421;2.37254906
8.10172462;0.62745100
8.10573864;0.00000000
8.10983467;0.35294119
8.10983467;0.45098040
8.11396313;1.13725495
8.11810780;1.80392158
8.11810780;1.43137252
8.12218761;0.31372550
8.12643909;0.58823532
8.13047791;0.86274511
8.13047791;1.07843137
8.13445950;1.86274505
8.13860416;1.82352936
8.14259434;0.94117647
8.14259434;0.50980395
8.14682102;0.25490198
8.15091705;0.58823532
8.15487385;1.41176474
8.15487385;1.94117641
8.15889645;1.92156863
8.16308212;1.13725495
8.16308212;0.68627453
8.16725159;0.54901963
8.17135620;1.19607842
8.17557526;1.64705884
8.17557526;2.27450991
8.17946625;2.33333325
8.18359470;1.68627453
8.18782234;0.82352942
8.18782234;1.29411769
8.19196701;1.41176474
8.19593239;2.54901958
8.19995403;3.25490189
8.19995403;2.29411769
8.20427990;1.43137252
8.20830250;1.11764705
8.20830250;2.01960778
8.21238995;2.52941179
8.21636295;3.50980401
8.22063065;3.60784316
8.22063065;2.11764717
8.22466183;1.27450979
8.22875786;1.50980389
8.23275566;2.17647052
8.23275566;3.41176462
8.23687553;4.01960802
8.24102116;3.33333325
8.24514103;2.33333325
8.24514103;1.54901958
8.24910641;1.96078432
8.25339127;2.88235283
8.25339127;3.50980401
8.25744629;3.98039222
8.26158237;3.29411769
8.26569557;2.33333325
8.26569557;1.90196073
8.26959419;2.78431368
8.27365780;3.49019599
8.27788448;3.86274505
8.27788448;4.00000000
8.28194809;3.39215684
8.28604412;2.76470590
8.29010773;3.62745094
8.29406452;4.07843161
8.29823399;4.52941179
8.29823399;4.09803915
8.30233002;3.35294127
8.30645084;2.90196085
8.31063652;3.72549009
8.31063652;4.27450991
8.31474876;4.43137264
8.31870556;4.84313726
8.32272816;4.23529434
8.32272816;3.41176462
8.32708645;3.27450991
8.33119869;3.60784316
8.33530235;4.96078444
8.33938217;4.56862736
8.34342957;3.43137264
8.34342957;2.82352948
8.34755802;2.56862736
8.35161304;2.74509811
8.35585594;3.17647052
8.35585594;3.56862736
8.35965729;3.15686274
8.36380291;1.92156863
8.36794758;0.88235295
8.36794758;1.43137252
8.37207699;2.25490189
8.37606621;2.27450991
8.38035011;1.21568632
8.38430691;0.64705884
8.38845253;1.35294116
8.38845253;1.33333337
8.39260578;1.11764705
8.39671803;1.96078432
8.40076447;2.58823538
8.40076447;1.43137252
8.40491867;0.00000000
8.40880108;0.35294119
8.41308594;1.25490201
8.41308594;1.49019611
8.41716576;2.15686274
8.42127800;2.15686274
8.42517662;0.54901963
8.42933083;0.98039216
8.43340969;1.37254906
8.43340969;1.66666663
8.43755531;2.00000000
8.44169998;1.66666663
8.44582081;1.23529410
8.44582081;1.03921568
8.44978619;1.50980389
8.45389843;1.54901958
8.45819950;1.54901958
8.45819950;1.72549021
8.46224594;1.49019611
8.46635818;1.15686274
8.47033978;1.52941179
8.47451782;2.19607854
8.47871208;2.39215684
8.47871208;1.90196073
8.48268509;1.23529410
8.48669910;1.05882359
8.49092579;1.68627453
8.49092579;2.13725495
8.49512863;2.60784316
8.49893761;2.92156863
8.50304985;1.94117641
8.50304985;1.49019611
8.50718689;1.23529410
8.51134872;1.92156863
8.51535416;2.86274505
8.51926231;2.72549009
8.52344036;1.41176474
8.52344036;1.23529410
8.52752018;1.64705884
8.53166485;2.35294127
8.53595734;2.21568632
8.53595734;2.47058821
8.53995514;2.76470590
8.54405975;1.74509799
8.54819679;1.00000000
8.54819679;1.76470590
8.55232525;2.62745094
8.55629826;2.56862736
8.56059933;2.27450991
8.56471920;1.39215684
8.56887341;1.07843137
8.56887341;1.80392158
8.57283783;2.45098042
8.57692528;2.96078420
8.58106232;2.94117641
8.58106232;1.98039210
8.58515072;1.25490201
8.58907413;1.13725495
8.59342480;2.05882359
8.59342480;2.84313726
8.59732342;2.90196085
8.60147667;2.37254906
8.60147667;1.64705884
8.60560608;0.92156863
8.60962772;1.41176474
8.61383057;2.21568632
8.61383057;2.64705873
8.61796761;2.68627453
8.62210464;1.90196073
8.62624931;1.13725495
8.62624931;1.23529410
8.63018990;2.13725495
8.63430214;2.49019599
8.63847256;2.60784316
8.63847256;2.52941179
8.64247036;1.86274505
8.64659023;1.43137252
8.64659023;1.70588231
8.65062046;2.19607854
8.65475750;2.66666675
8.65882969;2.76470590
8.65882969;2.60784316
8.66295815;1.84313726
8.66705418;1.27450979
8.67106819;1.90196073
8.67106819;2.37254906
8.67523766;2.84313726
8.67936707;3.13725495
8.68332386;2.43137264
8.68332386;1.66666663
8.68747711;1.29411769
8.69161415;2.05882359
8.69161415;2.76470590
8.69559479;3.19607854
8.69969940;2.94117641
8.70384407;2.01960778
8.70384407;1.56862748
8.70801449;1.54901958
8.71218395;2.70588231
8.71618938;3.33333325
8.71618938;2.76470590
8.72047424;3.47058821
8.72443867;2.47058821
8.72851086;1.15686274
8.72851086;1.66666663
8.73255730;3.33333325
8.73666954;4.03921556
8.73666954;3.41176462
8.74080658;2.00000000
8.74489403;1.23529410
8.74878597;1.01960790
8.74878597;2.19607854
8.75292301;3.39215684
8.75703526;4.01960802
8.76116371;3.43137264
8.76116371;2.00000000
8.76530075;1.09803927
8.76928234;1.21568632
8.77343559;2.11764717
8.77343559;3.03921580
8.77767849;3.49019599
8.78180790;2.90196085
8.78180790;2.17647052
8.78581333;1.43137252
8.78980255;1.62745094
8.79403782;2.01960778
8.79403782;2.82352948
8.79811001;3.56862736
8.80233669;2.90196085
8.80638409;1.80392158
8.80638409;1.43137252
8.81028271;2.15686274
8.81433773;2.70588231
8.81856537;3.13725495
8.82249737;2.21568632
8.82669163;1.66666663
8.82669163;1.82352936
8.83081245;2.43137264
8.83492470;3.19607854
8.83924198;3.64705873
8.83924198;3.27450991
8.84316540;1.96078432
8.84732723;1.54901958
8.85144806;2.43137264
8.85144806;3.00000000
8.85556793;3.35294127
8.85957432;3.78431368
8.86367035;1.88235295
8.86779118;2.11764717
8.87193584;2.60784316
8.87193584;3.19607854
8.87591743;3.88235283
8.88000488;3.47058821
8.88416672;2.09803915
8.88416672;2.23529410
8.88834476;2.43137264
8.89239120;2.52941179
8.89638138;2.94117641
8.89638138;2.90196085
8.90047646;2.70588231
8.90462208;2.35294127
8.90875053;1.80392158
8.91274071;2.54901958
8.91696739;2.74509811
8.91696739;2.88235283
8.92101383;2.25490189
8.92513466;1.49019611
8.92916489;1.29411769
8.92916489;2.17647052
8.93334293;2.56862736
8.93744755;2.82352948
8.94150257;2.98039222
8.94150257;2.01960778
8.94556522;0.88235295
8.94950581;1.21568632
8.95359421;2.27450991
8.95782948;2.86274505
8.96193314;2.68627453
8.96193314;1.98039210
8.96596336;2.29411769
8.96994495;3.80392146
8.97415543;4.96078444
8.97415543;4.96078444
8.97826862;4.96078444
8.98229885;4.96078444
8.98634529;4.96078444
8.98634529;4.96078444
8.99056435;4.96078444
8.99467659;4.96078444
8.99882221;3.00000000
9.00280285;1.19607842
9.00693226;0.25490198
9.00693226;0.07843138
9.01107693;0.56862748
9.01534557;1.03921568
9.01949024;1.07843137
9.01949024;1.11764705
9.02347183;0.33333334
9.02759266;0.01960784
9.03171253;0.76470590
9.03171253;1.45098042
9.03582478;1.45098042
9.03975773;2.01960778
9.04377937;0.27450982
9.04811287;0.13725491
9.05216789;0.90196079
9.05216789;1.21568632
9.05616570;1.92156863
9.06031895;2.01960778
9.06445599;0.76470590
9.06445599;0.33333334
9.06859303;0.80392158
9.07265663;1.39215684
9.07667065;2.07843137
9.07667065;2.29411769
9.08078289;1.76470590
9.08493614;1.15686274
9.08908176;1.13725495
9.09307098;1.96078432
9.09718323;2.78431368
9.09718323;2.45098042
9.10125446;1.70588231
9.10541630;1.37254906
9.10944653;0.90196079
9.10944653;1.49019611
9.11346054;2.62745094
9.11762238;2.70588231
9.12167740;2.60784316
9.12167740;1.94117641
9.12589645;1.29411769
9.12995911;1.39215684
9.12995911;2.70588231
9.13408852;2.96078420
9.13820839;3.07843137
9.14243603;2.64705873
9.14243603;1.92156863
9.14645004;1.64705884
9.15043926;2.11764717
9.15456009;2.68627453
9.15456009;3.09803915
9.15868855;3.64705873
9.16262913;2.86274505
9.16672516;2.03921580
9.16672516;1.80392158
9.17091084;2.78431368
9.17504025;3.54901958
9.17504025;3.88235283
9.17916012;3.78431368
9.18314171;3.01960778
9.18734455;2.47058821
9.18734455;3.09803915
9.19140720;3.68627453
9.19556141;4.68627453
9.19973087;4.45098019
9.19973087;4.37254906
9.20372868;3.64705873
9.20786572;3.29411769
9.21199417;3.72549009
9.21199417;3.94117641
9.21638489;4.96078444
9.21990776;4.82352924
9.21990776;4.45098019
9.22418404;4.13725471
9.22831249;3.15686274
9.23229408;3.47058821
9.23229408;4.76470566
9.23645496;4.96078444
9.24053478;4.70588255
9.24462318;3.35294127
9.24462318;2.15686274
9.24853039;2.27450991
9.25263500;2.94117641
9.25679588;4.13725471
9.25679588;4.64705896
9.26092529;3.43137264
9.26498795;1.76470590
9.26498795;0.82352942
9.26919079;1.80392158
9.27331924;2.54901958
9.27728462;2.98039222
9.27728462;2.47058821
9.28153610;1.86274505
9.28571415;1.31372547
9.28979397;0.43137255
9.28979397;0.90196079
9.29372597;1.37254906
9.29784584;2.37254906
9.30207348;0.90196079
9.30600548;0.00000000
9.30988884;0.78431374
9.30988884;1.64705884
9.31409931;1.49019611
9.31833458;1.52941179
9.32234001;0.98039216
9.32234001;0.70588237
9.32641220;0.21568628
9.33055687;0.64705884
9.33465290;0.94117647
9.33465290;1.70588231
9.33880615;2.17647052
9.34282875;1.03921568
9.34707165;0.13725491
9.35111046;1.58823526
9.35521507;2.07843137
9.35521507;1.94117641
9.35927773;1.56862748
9.36330891;1.05882359
9.36757660;0.76470590
9.36757660;0.70588237
9.37158203;1.52941179
9.37569523;1.92156863
9.37994671;2.52941179
9.37994671;2.11764717
9.38390350;0.98039216
9.38793373;0.54901963
9.39211941;2.15686274
9.39607620;2.43137264
9.40032864;2.70588231
9.40032864;1.88235295
9.40430927;1.05882359
9.40845490;1.00000000
9.41258335;1.52941179
9.41258335;2.21568632
9.41684341;2.52941179
9.42075062;2.45098042
9.42485523;1.54901958
9.42485523;0.94117647
9.42890167;1.11764705
9.43282604;1.72549021
9.43717575;2.50980401
9.44128799;2.21568632
9.44537640;1.01960790
9.44537640;0.78431374
9.44914436;1.62745094
9.45335484;2.50980401
9.45752430;3.00000000
9.45752430;2.64705873
9.46164513;1.84313726
9.46585560;1.41176474
9.46994400;1.29411769
9.46994400;2.00000000
9.47394943;2.47058821
9.47804546;2.84313726
9.48233795;1.64705884
9.48645115;0.82352942
9.49046516;1.56862748
9.49046516;2.54901958
9.49447918;2.84313726
9.49865723;2.96078420
9.50278568;2.35294127
9.50278568;1.74509799
9.50673389;1.43137252
9.51090336;1.98039210
9.51480293;2.74509811
9.51480293;3.11764717
9.51905441;2.88235283
9.52302837;2.43137264
9.52731228;1.39215684
9.53127766;2.15686274
9.53543091;2.80392146
9.53543091;3.11764717
9.53937054;3.15686274
9.54359818;2.11764717
9.54771900;1.68627453
9.54771900;1.76470590
9.55195427;2.33333325
9.55598450;3.54901958
9.55989170;3.50980401
9.55989170;2.70588231
9.56420135;1.92156863
9.56829739;1.58823526
9.57234383;3.00000000
9.57616138;3.23529410
9.58038807;3.15686274
9.58038807;2.29411769
9.58454132;1.45098042
9.58870316;1.33333337
9.59284019;2.17647052
9.59284019;2.84313726
9.59679699;3.31372547
9.60095024;2.82352948
9.60507870;2.00000000
9.60507870;1.56862748
9.60932255;1.96078432
9.61345100;2.35294127
9.61345100;2.64705873
9.61735058;2.94117641
9.62138939;2.56862736
9.62576389;1.66666663
9.62576389;1.45098042
9.62966347;2.21568632
9.63378334;2.90196085
9.63764191;3.19607854
9.63764191;2.88235283
9.64184475;2.23529410
9.64605522;1.84313726
9.65003681;1.84313726
9.65003681;2.49019599
9.65432072;2.86274505
9.65828609;3.31372547
9.65828609;3.07843137
9.66244793;2.21568632
9.66640472;1.58823526
9.67070484;2.17647052
9.67070484;2.82352948
9.67483425;3.03921580
9.67886448;3.01960778
9.68296051;2.72549009
9.68296051;1.92156863
9.68696594;1.54901958
9.69119358;1.90196073
9.69531345;2.50980401
9.69531345;3.09803915
9.69931984;3.27450991
9.70340729;2.23529410
9.70340729;1.60784316
9.70749569;1.60784316
9.71157551;2.56862736
9.71570396;3.19607854
9.71570396;3.07843137
9.71970940;3.07843137
9.72382164;2.15686274
9.72794247;1.74509799
9.72794247;2.31372547
9.73207188;3.00000000
9.73622513;3.62745094
9.74032879;3.37254906
9.74032879;3.03921580
9.74444103;2.00000000
9.74848843;1.84313726
9.74848843;2.70588231
9.75257587;2.82352948
9.75658226;3.33333325
9.76064491;3.41176462
9.76064491;2.86274505
9.76487255;2.17647052
9.76900959;1.84313726
9.77290821;2.72549009
9.77290821;3.31372547
9.77691460;3.27450991
9.78117466;2.94117641
9.78529453;1.84313726
9.78529453;1.31372547
9.78939915;1.52941179
9.79342175;2.37254906
9.79342175;2.78431368
9.79755783;2.94117641
9.80167103;2.25490189
9.80597973;1.54901958
9.80597973;1.11764705
9.80995274;1.96078432
9.81404877;2.76470590
9.81809521;3.01960778
9.81809521;2.70588231
9.82223225;2.05882359
9.82644367;1.68627453
9.83044052;2.17647052
9.83443832;2.76470590
9.83860874;3.33333325
9.83860874;3.07843137
9.84276199;1.96078432
9.84682465;1.09803927
9.85094547;1.49019611
9.85094547;2.50980401
9.85507393;2.98039222
9.85912895;2.96078420
9.86320877;2.60784316
9.86320877;2.43137264
9.86736202;2.88235283
9.87122917;4.45098019
9.87560368;4.96078444
9.87970734;4.96078444
9.88350868;4.96078444
9.88350868;4.96078444
9.88756371;4.96078444
9.89186478;4.96078444
9.89602566;4.96078444
9.89602566;3.94117641
9.90008068;1.74509799
9.90421009;0.43137255
9.90833855;0.35294119
9.90833855;0.50980395
9.91247559;0.29411766
9.91658783;0.43137255
9.92058563;0.21568628
9.92472267;0.29411766
9.92875290;0.74509805
9.92875290;1.17647064
9.93281651;1.47058821
9.93677330;1.70588231
9.94107437;1.33333337
9.94107437;0.70588237
9.94516182;0.39215687
9.94923306;0.82352942
9.95316505;1.41176474
9.95316505;1.92156863
9.95729446;2.07843137
9.96141434;1.50980389
9.96556759;0.66666669
9.96969700;1.35294116
9.97367764;1.70588231
9.97367764;2.23529410
9.97781467;2.52941179
9.98195171;1.64705884
9.98613834;0.58823532
9.98613834;0.56862748
9.99020100;1.62745094
9.99433041;2.09803915
9.99822140;2.33333325
9.99822140;2.45098042
10.00240707;2.01960778
10.00669193;1.11764705
10.01060772;2.03921580
10.01455593;2.58823538
10.01871777;3.03921580
10.01871777;2.92156863
10.02291203;2.35294127
10.02692604;1.31372547
10.03107166;1.64705884
10.03107166;2.64705873
10.03519154;3.25490189
10.03923893;3.03921580
10.04339981;2.76470590
10.04339981;2.05882359
10.04758644;1.72549021
10.05169868;2.29411769
10.05595016;3.70588231
10.05964470;3.31372547
10.06375694;2.64705873
10.06375694;2.43137264
10.06803322;2.64705873
10.07220364;2.92156863
10.07625008;3.66666675
10.07625008;4.39215708
10.08025646;3.90196085
10.08426189;3.11764717
10.08839893;2.39215684
10.08839893;2.94117641
10.09256077;3.45098042
10.09667301;4.39215708
10.10065365;4.41176462
10.10476685;3.21568632
10.10908318;2.96078420
10.10908318;3.82352948
10.11314678;4.25490189
10.11721039;4.86274529
10.12129784;4.96078444
10.12129784;4.25490189
10.12538528;3.00000000
10.12947369;3.19607854
10.13368416;4.13725471
10.13368416;4.60784292
10.13760853;4.76470566
10.14155674;4.27450991
10.14155674;3.27450991
10.14577579;2.49019599
10.14981461;2.82352948
10.15393448;3.33333325
10.15393448;4.00000000
10.15803909;3.88235283
10.16214371;2.74509811
10.16629696;1.90196073
10.16629696;1.54901958
10.17067146;1.98039210
10.17447186;2.43137264
10.17870712;2.84313726
10.17870712;2.54901958
10.18273830;1.47058821
10.18677616;0.66666669
10.18677616;0.52941179
10.19083977;1.25490201
10.19506645;1.70588231
10.19916248;2.05882359
10.19916248;1.56862748
10.20301342;0.45098040
10.20730591;0.01960784
10.21120548;0.60784316
10.21120548;0.96078432
10.21547318;1.37254906
10.21957779;2.09803915
10.22389412;1.00000000
10.22389412;0.45098040
10.22782707;0.47058824
10.23194695;1.13725495
10.23194695;1.52941179
10.23608398;1.76470590
10.24006557;1.76470590
10.24419403;1.33333337
10.24419403;0.78431374
10.24822521;0.68627453
10.25233746;1.35294116
10.25639248;1.84313726
10.25639248;2.17647052
10.26043892;1.88235295
10.26469898;1.31372547
10.26868057;0.68627453
10.26868057;1.00000000
10.27284145;1.84313726
10.27698708;2.35294127
10.27698708;2.47058821
10.28109074;1.68627453
10.28522015;0.78431374
10.28933239;0.49019608
10.28933239;1.31372547
10.29346085;2.00000000
10.29743385;2.50980401
10.30157089;2.47058821
10.30157089;1.50980389
10.30565929;0.90196079
10.30971432;0.98039216
10.31366253;1.80392158
10.31366253;2.50980401
10.31807804;2.68627453
10.32191181;2.43137264
10.32191181;1.49019611
10.32603264;1.00000000
10.33000565;1.66666663
10.33433056;2.41176462
10.33433056;2.70588231
10.33836174;2.82352948
10.34256363;2.29411769
10.34670925;1.52941179
10.34670925;1.17647064
10.35068226;2.01960778
10.35481930;2.54901958
10.35896397;2.62745094
10.36299515;1.94117641
10.36703300;1.21568632
10.36703300;1.41176474
10.37112141;2.11764717
10.37519264;2.76470590
10.37922287;3.00000000
10.37922287;2.60784316
10.38345814;1.68627453
10.38748074;1.13725495
10.39164257;1.76470590
10.39164257;2.29411769
10.39572144;2.66666675
10.39979362;2.82352948
10.40387249;1.66666663
10.40810776;1.33333337
10.41213894;2.03921580
10.41213894;2.45098042
10.41624260;2.88235283
10.42036343;2.90196085
10.42434502;2.09803915
10.42434502;1.37254906
10.42846489;1.62745094
10.43258572;2.21568632
10.43676376;2.86274505
10.43676376;2.98039222
10.44072056;2.39215684
10.44480038;1.62745094
10.44905186;2.01960778
10.45312309;2.27450991
10.45708847;2.80392146
10.45708847;3.13725495
10.46133137;2.60784316
10.46536160;2.01960778
10.46958923;1.56862748
10.46958923;2.01960778
10.47360325;2.50980401
10.47753525;3.11764717
10.48178673;2.88235283
10.48178673;2.19607854
10.48591518;1.43137252
10.48997116;1.84313726
10.49391079;3.03921580
10.49799919;3.23529410
10.50204563;2.70588231
10.50204563;1.86274505
10.50620747;1.39215684
10.51018047;2.43137264
10.51432514;2.76470590
10.51432514;3.00000000
10.51855278;3.19607854
10.52259922;2.35294127
10.52683449;1.80392158
10.52683449;1.52941179
10.53079987;2.07843137
10.53494453;2.90196085
10.53911495;3.27450991
10.54320240;2.52941179
10.54733086;1.98039210
10.54733086;2.19607854
10.55132866;3.00000000
10.55578518;3.31372547
10.55970097;3.45098042
10.55970097;3.05882359
10.56358433;3.11764717
10.56773758;2.21568632
10.57175922;2.35294127
10.57175922;2.86274505
10.57599449;4.13725471
10.58020592;4.29411745
10.58404732;2.29411769
10.58794689;1.68627453
10.59217453;2.07843137
10.59217453;3.21568632
10.59635162;4.07843161
10.60043144;3.90196085
10.60453606;2.86274505
10.60453606;1.33333337
10.60866451;1.19607842
10.61282635;2.17647052
10.61693001;2.54901958
10.61693001;3.00000000
10.62106705;2.90196085
10.62518787;1.86274505
10.62518787;1.29411769
10.62931633;1.82352936
10.63328934;1.74509799
10.63739395;2.37254906
10.63739395;3.19607854
10.64147377;2.31372547
10.64564323;1.66666663
10.64957523;1.76470590
10.64957523;2.09803915
10.65354824;2.47058821
10.65779972;3.07843137
10.66194534;2.49019599
10.66194534;1.62745094
10.66605759;1.25490201
10.67018604;1.31372547
10.67018604;2.31372547
10.67432308;2.86274505
10.67829704;2.78431368
10.68258095;2.50980401
10.68258095;2.19607854
10.68668556;2.07843137
10.69069099;3.43137264
10.69472122;4.96078444
10.69472122;4.96078444
10.69882584;4.96078444
10.70299530;4.96078444
10.70710754;4.96078444
10.70710754;4.96078444
10.71108055;4.96078444
10.71523476;4.96078444
10.71523476;4.88235283
10.71928978;3.68627453
10.72338581;1.13725495
10.72743225;0.00000000
10.72743225;0.13725491
10.73151970;0.29411766
10.73564911;0.78431374
10.73976898;1.21568632
10.73976898;0.74509805
10.74394703;0.25490198
10.74803543;0.29411766
10.75210667;0.60784316
10.75210667;1.05882359
10.75620270;2.01960778
10.76042175;1.92156863
10.76042175;1.13725495
10.76428795;0.76470590
10.76851463;0.41176471
10.77261066;0.98039216
10.77261066;2.15686274
10.77651024;2.35294127
10.78058147;1.82352936
10.78475952;1.27450979
10.78475952;0.56862748
10.78891277;0.86274511
10.79304981;1.80392158
10.79717064;2.13725495
10.79717064;2.21568632
10.80131626;2.17647052
10.80528927;1.45098042
10.80528927;0.92156863
10.80953217;1.43137252
10.81356335;1.98039210
10.81759357;2.37254906
10.81759357;2.56862736
10.82155800;1.88235295
10.82559681;1.29411769
10.82970905;1.25490201
10.82970905;1.94117641
10.83387089;2.96078420
10.83803272;3.09803915
10.84216118;2.09803915
10.84628963;1.45098042
10.85042667;1.64705884
10.85042667;2.62745094
10.85441685;3.03921580
10.85852909;3.33333325
10.86266613;3.00000000
10.86266613;2.09803915
10.86679459;1.47058821
10.87071037;2.41176462
10.87482262;3.11764717
10.87482262;3.52941179
10.87893486;3.76470590
10.88315392;3.13725495
10.88716793;2.39215684
10.89128017;3.82352948
10.89542580;4.15686274
10.89542580;4.33333349
10.89954567;4.27450991
10.90351963;3.41176462
10.90760708;2.86274505
10.90760708;3.76470590
10.91171932;4.39215708
10.91584778;4.66666651
10.92008305;4.94117641
10.92008305;4.49019623
10.92408085;3.86274505
10.92835712;3.52941179
10.93227291;4.37254906
10.93640995;4.78431368
10.94067860;4.96078444
10.94067860;4.76470566
10.94458580;3.72549009
10.94859982;3.49019599
10.95271206;4.11764717
10.95271206;4.49019623
10.95677567;4.64705896
10.96087933;4.31372547
10.96504116;3.49019599
10.96504116;2.90196085
10.96914577;3.25490189
10.97324181;3.66666675
10.97722244;3.64705873
10.98148251;3.00000000
10.98561954;2.23529410
10.98561954;1.56862748
10.98971558;1.60784316
10.99366379;2.05882359
10.99778461;2.31372547
10.99778461;2.54901958
11.00202847;1.88235295
11.00614071;0.82352942
11.01000690;0.52941179
11.01000690;0.92156863
11.01414394;1.54901958
11.01826477;1.56862748
11.02239323;0.62745100
11.02655506;0.00000000
11.03066730;0.66666669
11.03066730;1.01960790
11.03464031;1.37254906
11.03880215;1.70588231
11.04306984;1.33333337
11.04306984;0.66666669
11.04705906;0.01960784
11.05115509;0.84313726
11.05541515;1.52941179
11.05541515;2.13725495
11.05941296;2.52941179
11.06353378;0.98039216
11.06736755;0.96078432
11.07148838;0.84313726
11.07580471;1.19607842
11.07580471;2.49019599
11.07990932;3.03921580
11.08382511;1.52941179
11.08788013;0.33333334
11.08788013;0.47058824
11.09204960;1.31372547
11.09633446;2.19607854
11.10045528;2.47058821
11.10045528;2.43137264
11.10442829;1.62745094
11.10858917;0.92156863
11.11271858;1.41176474
11.11674881;2.66666675
11.12073040;3.11764717
11.12073040;2.01960778
11.12485886;1.27450979
11.12891388;1.50980389
11.13305950;1.78431368
11.13305950;2.09803915
11.13699150;2.66666675
11.14142323;2.56862736
11.14528942;1.54901958
11.14528942;1.27450979
11.14940166;1.66666663
11.15351486;2.21568632
11.15351486;2.52941179
11.15760231;2.70588231
11.16182899;2.23529410
11.16594219;1.13725495
11.16594219;1.03921568
11.17008686;1.92156863
11.17405987;2.33333325
11.17818069;2.37254906
11.17818069;2.74509811
11.18231773;2.25490189
11.18635654;1.17647064
11.19047642;1.11764705
11.19047642;1.98039210
11.19433498;2.50980401
11.19848824;2.64705873
11.19848824;2.27450991
11.20279789;1.66666663
11.20681190;1.21568632
11.21080971;1.56862748
11.21080971;2.27450991
11.21475792;2.80392146
11.21903419;2.52941179
11.22312164;2.27450991
11.22312164;1.56862748
11.22726727;0.96078432
11.23123169;1.62745094
11.23534393;2.70588231
11.23534393;3.17647052
11.23931789;2.94117641
11.24357700;2.07843137
11.24357700;1.17647064
11.24752617;1.39215684
11.25169563;2.07843137
11.25594711;2.56862736
11.25594711;3.09803915
11.26003551;2.74509811
11.26401615;1.37254906
11.26830101;0.86274511
11.26830101;1.64705884
11.27228165;2.27450991
11.27642727;2.62745094
11.28070354;2.60784316
11.28070354;2.11764717
11.28470898;1.56862748
11.28881359;1.21568632
11.28881359;1.72549021
11.29304886;2.29411769
11.29693222;3.01960778
11.30095387;3.11764717
11.30095387;2.01960778
11.30505848;0.94117647
11.30905628;1.11764705
11.31320953;2.25490189
11.31320953;2.70588231
11.31742001;2.80392146
11.32149124;2.66666675
11.32548141;1.80392158
11.32548141;1.21568632
11.32965088;1.47058821
11.33386993;2.00000000
11.33386993;2.74509811
11.33792496;3.07843137
11.34194660;2.52941179
11.34604263;1.60784316
11.34604263;1.09803927
11.35019588;1.76470590
11.35430050;2.29411769
11.35828209;2.60784316
11.35828209;2.80392146
11.36233711;2.03921580
11.36639977;1.15686274
11.37065125;2.11764717
11.37456703;2.80392146
11.37874508;3.01960778
11.37874508;2.52941179
11.38293934;1.88235295
11.38706875;1.56862748
11.39105797;1.76470590
11.39105797;2.52941179
11.39519501;2.80392146
11.39932346;2.84313726
11.40344429;3.64705873
11.40344429;2.29411769
11.40743351;1.05882359
11.41156292;1.78431368
11.41567516;4.15686274
11.41981983;3.39215684
11.42405510;2.25490189
11.42405510;1.31372547
11.42806149;1.41176474
11.43214893;2.62745094
11.43618774;3.84313726
11.43618774;4.21568632
11.44039059;3.54901958
11.44435501;2.09803915
11.44854927;1.31372547
11.44854927;2.05882359
11.45256329;2.92156863
11.45662689;3.60784316
11.46059132;2.94117641
11.46476936;1.92156863
11.46890640;1.01960790
11.46890640;1.56862748
11.47298622;2.03921580
11.47715569;2.76470590
11.48128414;2.84313726
11.48128414;2.11764717
11.48543835;1.07843137
11.48948479;1.27450979
11.49369526;2.07843137
11.49369526;2.54901958
11.49760342;2.94117641
11.50161743;2.68627453
11.50603294;1.41176474
11.51002216;1.80392158
11.51408577;2.01960778
11.51408577;2.92156863
11.51797676;2.90196085
11.52209759;2.13725495
11.52630806;1.50980389
11.52630806;1.27450979
11.53031349;2.01960778
11.53440189;2.39215684
11.53853035;3.05882359
11.53853035;3.37254906
11.54269218;3.25490189
11.54716492;3.70588231
11.55085945;4.96078444
11.55506134;4.96078444
11.55912495;4.96078444
11.55912495;4.96078444
11.56326199;4.96078444
11.56725121;4.96078444
11.57136345;4.96078444
11.57136345;4.96078444
11.57552528;3.72549009
11.57936764;2.96078420
11.58356953;1.76470590
11.58356953;0.39215687
11.58762455;0.00000000
11.59178638;0.45098040
11.59583378;1.62745094
11.60005188;1.88235295
11.60417271;1.03921568
11.60417271;0.09803922
11.60839176;0.52941179
11.61243820;1.47058821
11.61655903;1.56862748
11.61655903;1.80392158
11.62049103;1.43137252
11.62452984;0.33333334
11.62875652;0.03921569
11.62875652;0.54901963
11.63291836;1.05882359
11.63700676;1.80392158
11.64082336;1.56862748
11.64490318;0.80392158
11.64914703;0.43137255
11.64914703;0.70588237
11.65329170;1.62745094
11.65726471;2.23529410
11.66134453;2.03921580
11.66134453;1.23529410
11.66547394;0.62745100
11.66960239;0.70588237
11.67393589;1.76470590
11.67393589;2.66666675
11.67788410;2.58823538
11.68196392;2.43137264
11.68196392;1.66666663
11.68602753;0.90196079
11.69013119;1.60784316
11.69443226;2.43137264
11.69443226;2.62745094
11.69838047;2.84313726
11.70242786;2.58823538
11.70656490;1.43137252
11.70656490;1.23529410
11.71057034;2.17647052
11.71471596;2.47058821
11.71884441;3.31372547
11.71884441;3.43137264
11.72290802;2.11764717
11.72712612;1.86274505
11.72712612;2.41176462
11.73117352;2.58823538
11.73533535;3.01960778
11.73929977;3.82352948
11.73929977;3.27450991
11.74344540;2.50980401
11.74742603;2.11764717
11.75153828;2.33333325
11.75153828;3.31372547
11.75556946;4.31372547
11.75991917;4.17647076
11.76401520;3.45098042
11.76401520;3.05882359
11.76790619;2.45098042
11.77197742;3.45098042
11.77197742;4.54901981
11.77613926;4.56862736
11.78029251;4.31372547
11.78432274;3.78431368
11.78432274;3.13725495
11.78827953;3.43137264
11.79237556;4.23529434
11.79662704;4.64705896
11.79662704;4.56862736
11.80056763;4.47058821
11.80473709;3.76470590
11.80887413;3.47058821
11.80887413;4.19607830
11.81300354;4.43137264
11.81702518;4.47058821
11.81702518;4.41176462
11.82112980;3.80392146
11.82525063;2.92156863
11.82937050;2.35294127
11.82937050;2.86274505
11.83349133;3.43137264
11.83751392;3.76470590
11.84170818;3.35294127
11.84170818;2.27450991
11.84577942;1.49019611
11.85003948;1.64705884
11.85419273;2.21568632
11.85808372;2.52941179
11.86235142;1.70588231
11.86235142;0.86274511
11.86631680;0.54901963
11.87048626;1.11764705
11.87464809;1.50980389
11.87464809;1.82352936
11.87858009;2.52941179
11.88258648;1.37254906
11.88684559;0.60784316
11.88684559;0.03921569
11.89088440;0.88235295
11.89499664;1.78431368
11.89901066;1.88235295
11.90327930;1.27450979
11.90743256;1.21568632
11.90743256;0.70588237
11.91142178;1.09803927
11.91556740;1.76470590
11.91969585;2.82352948
11.91969585;2.64705873
11.92381668;1.17647064
11.92782211;0.17647059
11.93193436;0.47058824
11.93193436;1.60784316
11.93605518;2.80392146
11.94012642;3.17647052
11.94412422;0.88235295
11.94831085;0.39215687
11.95241451;0.96078432
11.95241451;1.86274505
11.95651054;2.56862736
11.96060658;2.80392146
11.96453857;2.00000000
11.96453857;1.25490201
11.96869183;0.94117647
11.97282887;1.39215684
11.97698212;2.29411769
11.97698212;2.74509811
11.98095608;2.31372547
11.98512554;1.33333337
11.98932743;1.66666663
11.99344063;1.88235295
11.99755287;2.17647052
11.99755287;2.62745094
12.00155067;2.31372547
12.00558090;1.25490201
12.00961971;0.86274511
12.00961971;1.52941179
12.01382160;2.60784316
12.01786900;2.78431368
12.02198124;2.60784316
12.02198124;1.35294116
12.02600384;0.94117647
12.03015709;1.54901958
12.03426933;2.37254906
12.03825855;2.41176462
12.04243660;2.62745094
12.04243660;1.74509799
12.04656506;1.25490201
12.05066109;1.49019611
12.05476570;2.03921580
12.05476570;2.78431368
12.05890274;2.72549009
12.06303120;2.09803915
12.06715202;1.11764705
12.06715202;1.11764705
12.07104301;1.96078432
12.07534409;2.45098042
12.07938290;2.60784316
12.08352757;1.94117641
12.08739471;1.25490201
12.08739471;1.29411769
12.09146595;1.86274505
12.09567642;2.52941179
12.09977245;2.72549009
12.09977245;2.43137264
12.10395050;1.66666663
12.10791492;1.21568632
12.11201954;1.76470590
12.11201954;2.21568632
12.11630344;2.58823538
12.12035847;2.56862736
12.12443829;1.27450979
12.12847710;1.27450979
12.13252449;2.00000000
12.13252449;2.74509811
12.13660336;3.29411769
12.14091301;2.76470590
12.14487743;1.74509799
12.14487743;1.19607842
12.14873600;1.94117641
12.15302086;2.45098042
12.15710831;2.64705873
12.15710831;2.78431368
12.16128635;2.72549009
12.16523457;1.66666663
12.16523457;1.23529410
12.16936302;2.01960778
12.17350864;2.33333325
12.17762089;2.64705873
12.17762089;2.74509811
12.18180752;2.29411769
12.18593597;1.50980389
12.18994141;1.27450979
12.18994141;2.17647052
12.19402122;3.37254906
12.19806004;2.84313726
12.20240974;2.64705873
12.20240974;2.54901958
12.20637512;1.58823526
12.21024132;1.54901958
12.21024132;2.21568632
12.21428871;3.31372547
12.21853161;3.52941179
12.22261143;2.80392146
12.22261143;1.86274505
12.22673225;1.43137252
12.23072147;2.56862736
12.23483372;2.72549009
12.23483372;3.13725495
12.23901176;3.31372547
12.24337864;2.19607854
12.24740887;1.72549021
12.24740887;2.01960778
12.25128365;2.25490189
12.25545311;2.70588231
12.25545311;3.39215684
12.25949192;2.88235283
12.26369476;1.92156863
12.26791286;1.19607842
12.26791286;1.62745094
12.27188587;2.39215684
12.27585125;2.94117641
12.28005409;3.45098042
12.28005409;3.03921580
12.28421497;2.05882359
12.28829479;1.66666663
12.29235840;2.21568632
12.29235840;2.76470590
12.29640484;3.11764717
12.30055046;3.66666675
12.30055046;3.07843137
12.30468750;2.05882359
12.30879974;1.58823526
12.31290340;2.68627453
12.31290340;3.17647052
12.31697464;3.35294127
12.32100582;3.33333325
12.32506847;2.49019599
12.32506847;1.90196073
12.32927990;2.25490189
12.33338356;3.11764717
12.33723354;3.21568632
12.33723354;3.03921580
12.34133816;2.60784316
12.34549141;2.00000000
12.34549141;1.33333337
12.34962845;1.78431368
12.35374069;2.35294127
12.35786915;2.82352948
12.35786915;2.88235283
12.36186695;2.11764717
12.36613560;1.47058821
12.37001801;1.17647064
12.37001801;2.03921580
12.37407303;2.84313726
12.37817764;3.00000000
12.38224030;1.64705884
12.38638592;1.39215684
12.39064598;1.80392158
12.39064598;2.29411769
12.39464378;2.56862736
12.39877224;2.90196085
12.40290928;2.49019599
12.40290928;1.60784316
12.40703773;1.15686274
12.41101933;1.82352936
12.41544342;2.45098042
12.41544342;3.01960778
12.41943264;3.45098042
12.42356110;3.31372547
12.42768192;4.21568632
12.43167973;4.96078444
12.43573475;4.96078444
12.43573475;4.96078444
12.43982220;4.96078444
12.44383621;4.96078444
12.44800568;4.96078444
12.44800568;4.96078444
12.45215988;4.96078444
12.45625591;3.94117641
12.46025276;2.76470590
12.46025276;1.52941179
12.46423435;0.25490198
12.46846199;0.00000000
12.47276211;1.23529410
12.47679329;1.68627453
12.48091316;1.80392158
12.48091316;1.19607842
12.48489475;0.49019608
12.48902321;0.47058824
12.49325085;1.13725495
12.49325085;1.68627453
12.49725628;1.74509799
12.50128651;1.43137252
12.50529289;0.50980395
12.50529289;0.25490198
12.50950336;0.49019608
12.51364040;1.15686274
12.51776886;2.21568632
12.52170944;1.58823526
12.52581406;0.60784316
12.52581406;0.45098040
12.53002453;1.11764705
12.53411198;1.76470590
12.53822422;2.35294127
12.53822422;2.56862736
12.54247665;1.72549021
12.54632664;1.11764705
12.55046368;1.15686274
12.55046368;1.62745094
12.55472374;2.27450991
12.55858994;2.52941179
12.56279278;1.70588231
12.56685543;1.82352936
12.57093525;1.68627453
12.57093525;3.13725495
12.57499027;3.66666675
12.57912731;3.05882359
12.58317375;2.60784316
12.58317375;2.23529410
12.58737659;2.47058821
12.59137440;3.07843137
12.59546185;2.92156863
12.59546185;3.35294127
12.59968090;3.54901958
12.60364628;3.15686274
12.60778332;2.86274505
12.61171532;3.33333325
12.61585236;3.94117641
12.61585236;3.92156863
12.61999702;3.98039222
12.62415028;3.25490189
12.62818909;2.78431368
12.62818909;3.41176462
12.63226032;4.54901981
12.63625813;4.96078444
12.64052677;4.72549009
12.64052677;3.90196085
12.64449120;3.50980401
12.64858723;3.35294127
12.65273285;4.96078444
12.65686131;4.96078444
12.66097355;4.96078444
12.66097355;4.43137264
12.66493034;3.92156863
12.66913319;3.94117641
12.67319584;4.96078444
12.67319584;4.96078444
12.67725086;4.96078444
12.68138790;4.90196085
12.68540192;4.21568632
12.68540192;3.86274505
12.68957996;4.96078444
12.69376659;4.96078444
12.69376659;4.96078444
12.69773102;4.96078444
12.70184326;4.58823538
12.70599651;3.82352948
12.70599651;3.82352948
12.71012592;4.62745094
12.71425438;4.80392170
12.71830082;4.96078444
12.71830082;4.96078444
12.72248745;4.21568632
12.72652626;3.31372547
12.73062229;3.05882359
12.73062229;3.96078420
12.73466015;4.29411745
12.73885536;4.58823538
12.73885536;4.35294104
12.74291039;3.35294127
12.74718571;2.62745094
12.75122452;2.98039222
12.75122452;3.82352948
12.75525570;4.09803915
12.75937557;3.96078420
12.76352119;3.66666675
12.76352119;3.01960778
12.76763344;2.58823538
12.77136040;3.21568632
12.77552223;4.21568632
12.77552223;4.68627453
12.77977371;4.23529434
12.78391075;3.68627453
12.78391075;3.17647052
12.78790855;3.17647052
12.79202080;3.70588231
12.79629707;4.45098019
12.79629707;4.82352924
12.80028629;4.70588255
12.80443192;3.90196085
12.80861759;3.39215684
12.80861759;3.78431368
12.81254196;4.49019623
12.81670380;4.68627453
12.82075882;4.96078444
12.82075882;4.74509811
12.82464981;3.82352948
12.82875347;3.52941179
12.82875347;4.21568632
12.83301353;4.72549009
12.83713436;4.96078444
12.84126282;4.94117641
12.84126282;4.01960802
12.84524441;3.35294127
12.84938145;3.76470590
12.85353470;4.60784292
12.85353470;4.96078444
12.85766315;4.96078444
12.86163616;4.78431368
12.86571598;3.80392146
12.86983681;4.19607830
12.87379360;4.76470566
12.87379360;4.96078444
12.87800407;4.82352924
12.88212490;4.50980377
12.88620472;4.03921556
12.88620472;3.62745094
12.89035797;4.45098019
12.89438820;4.82352924
12.89851665;4.96078444
12.89851665;4.86274529
12.90263748;3.78431368
12.90675831;3.88235283
12.91087055;4.33333349
12.91504002;4.88235283
12.91918564;4.96078444
12.91918564;4.82352924
12.92330551;4.17647076
12.92742634;3.50980401
12.93151474;3.76470590
12.93151474;4.35294104
12.93553638;4.70588255
12.93959999;4.80392170
12.94367123;4.27450991
12.94367123;3.39215684
12.94779968;3.29411769
12.95190430;4.11764717
12.95605755;4.90196085
12.96005535;4.47058821
12.96411896;3.72549009
12.96411896;3.31372547
12.96832943;3.25490189
12.97244167;3.72549009
12.97641468;4.43137264
12.97641468;4.72549009
12.98055172;4.33333349
12.98468018;3.45098042
12.98867798;2.80392146
12.98867798;3.11764717
12.99276638;3.82352948
12.99688625;4.49019623
13.00089264;3.84313726
13.00493908;2.94117641
13.00914192;2.60784316
13.00914192;3.29411769
13.01323795;4.03921556
13.01739883;4.31372547
13.02155304;4.03921556
13.02155304;3.03921580
13.02553368;2.52941179
13.02966309;2.78431368
13.03379154;3.64705873
13.03379154;4.19607830
13.03778934;4.27450991
13.04189301;3.70588231
13.04603863;2.31372547
13.05015945;2.72549009
13.05430412;3.33333325
13.05430412;3.90196085
13.05820370;3.80392146
13.06234074;3.43137264
13.06637955;2.74509811
13.06637955;2.54901958
13.07055759;3.31372547
13.07451439;3.58823538
13.07861805;3.92156863
13.07861805;3.78431368
13.08293533;3.03921580
13.08696556;2.31372547
13.09112740;3.33333325
13.09525585;4.00000000
13.09922123;4.31372547
13.09922123;3.68627453
13.10337448;2.66666675
13.10751915;1.90196073
13.11161518;2.72549009
13.11161518;3.49019599
13.11563778;4.01960802
13.11991405;3.98039222
13.12403488;3.23529410
13.12403488;2.45098042
13.12795830;2.09803915
13.13205433;2.82352948
13.13624096;3.54901958
13.14039421;3.72549009
13.14444065;2.98039222
13.14444065;2.49019599
13.14847946;2.45098042
13.15248585;2.90196085
13.15663052;3.41176462
13.15663052;3.80392146
13.16078377;3.60784316
13.16474915;2.90196085
13.16886139;2.19607854
13.16886139;2.76470590
13.17292404;3.35294127
13.17710209;3.84313726
13.17710209;3.96078420
13.18141937;3.33333325
13.18539238;2.70588231
13.18959522;2.23529410
13.18959522;3.01960778
13.19356823;3.54901958
13.19774628;3.92156863
13.20173550;3.90196085
13.20173550;3.23529410
13.20581532;2.56862736
13.21004200;2.49019599
13.21383572;3.03921580
13.21383572;3.54901958
13.21792316;3.54901958
13.22228146;3.25490189
13.22228146;1.96078432
13.22627068;1.33333337
13.23040771;2.13725495
13.23452854;2.68627453
13.23452854;3.64705873
13.23851776;3.33333325
13.24268723;2.31372547
13.24691486;2.17647052
13.24691486;1.68627453
13.25104332;1.68627453
13.25504875;2.45098042
13.25907135;3.49019599
13.25907135;3.07843137
13.26317596;1.64705884
13.26737785;1.21568632
13.26737785;1.09803927
13.27149010;1.84313726
13.27529144;2.92156863
13.27952671;3.11764717
13.27952671;2.54901958
13.28455639;1.66666663
13.28765297;0.94117647
13.29210186;1.27450979
13.29210186;2.21568632
13.29583740;2.76470590
13.29994965;2.86274505
13.30407810;2.80392146
13.30407810;2.86274505
13.30829716;3.25490189
13.31222916;4.68627453
13.31222916;4.96078444
13.31630898;4.96078444
13.32036400;4.96078444
13.32459068;4.96078444
13.32459068;4.96078444
13.32849884;4.96078444
13.33278275;4.96078444
13.33691978;4.60784292
13.33691978;3.68627453
13.34105682;2.23529410
13.34502983;0.45098040
13.34929848;0.00000000
13.34929848;0.11764706
13.35327911;0.41176471
13.35740852;1.09803927
13.35740852;1.19607842
13.36153698;0.64705884
13.36551857;0.31372550
13.36967182;0.17647059
13.36967182;0.68627453
13.37391472;1.52941179
13.37804413;1.82352936
13.38216496;1.56862748
13.38216496;1.01960790
13.38602257;0.49019608
13.39024162;0.49019608
13.39433765;1.88235295
13.39842606;1.86274505
13.40230846;1.84313726
13.40230846;1.33333337
13.40650272;0.86274511
13.41059113;1.47058821
13.41477680;1.78431368
13.41477680;2.23529410
13.41876602;2.52941179
13.42284584;1.94117641
13.42703247;1.11764705
13.42703247;1.39215684
13.43106270;2.00000000
13.43525696;2.15686274
13.43917274;2.64705873
13.44341564;1.98039210
13.44747066;1.68627453
13.44747066;1.90196073
13.45150185;1.98039210
13.45549965;2.70588231
13.45989799;3.23529410
13.45989799;2.70588231
13.46383095;1.98039210
13.46800804;1.54901958
13.47203064;1.80392158
13.47203064;2.39215684
13.47611809;3.15686274
13.48023129;3.35294127
13.48440838;2.21568632
13.48841476;1.98039210
13.49251938;2.49019599
13.49251938;3.29411769
13.49659061;3.88235283
13.50069427;3.66666675
13.50474930;2.74509811
13.50474930;2.39215684
13.50872231;2.50980401
13.51285934;3.33333325
13.51704597;3.88235283
13.51704597;4.13725471
13.52118301;3.88235283
13.52527046;3.31372547
13.52936649;3.39215684
13.53354454;4.09803915
13.53762436;4.56862736
13.53762436;4.62745094
13.54166317;4.15686274
13.54576683;3.54901958
13.54987907;3.23529410
13.54987907;3.98039222
13.55402470;4.43137264
13.55801392;4.84313726
13.56222439;4.94117641
13.56222439;4.00000000
13.56621456;3.56862736
13.57023621;3.56862736
13.57445526;4.84313726
13.57840347;4.96078444
13.58245087;4.09803915
13.58245087;3.19607854
13.58676815;2.98039222
13.59089661;3.27450991
13.59500122;3.52941179
13.59500122;3.78431368
13.59899807;3.76470590
13.60316849;3.17647052
13.60728836;2.17647052
13.60728836;1.49019611
13.61141777;2.03921580
13.61540699;2.50980401
13.61953545;2.68627453
13.62370586;1.70588231
13.62773609;0.76470590
13.62773609;0.72549021
13.63169289;1.15686274
13.63574791;1.76470590
13.63994217;2.21568632
13.63994217;1.76470590
13.64398098;0.70588237
13.64818287;0.05882353
13.65223026;0.60784316
13.65223026;1.33333337
13.65634251;1.98039210
13.66059399;1.90196073
13.66464901;0.31372550
13.66858101;0.01960784
13.67277527;0.94117647
13.67277527;1.66666663
13.67684746;2.00000000
13.68098450;1.84313726
13.68509674;0.88235295
13.68509674;0.37254903
13.68929100;0.62745100
13.69315720;1.47058821
13.69733524;2.21568632
13.69733524;2.41176462
13.70130825;1.98039210
13.70547771;1.03921568
13.70547771;0.60784316
13.70953274;1.17647064
13.71367836;1.72549021
13.71790504;2.47058821
13.71790504;2.66666675
13.72187042;1.92156863
13.72601509;1.15686274
13.73013592;0.98039216
13.73013592;1.76470590
13.73427296;2.35294127
13.73836040;2.98039222
13.74238300;2.74509811
13.74238300;1.47058821
13.74650383;1.86274505
13.75062466;1.74509799
13.75062466;1.80392158
13.75471210;2.33333325
13.75871754;3.31372547
13.76280594;3.17647052
13.76280594;1.80392158
13.76689339;1.07843137
13.77111244;1.88235295
13.77513504;2.47058821
13.77513504;3.35294127
13.77920628;3.54901958
13.78342533;2.84313726
13.78743076;2.09803915
13.78743076;1.60784316
13.79166603;2.03921580
13.79563904;2.94117641
13.79563904;3.35294127
13.79975128;2.94117641
13.80390549;2.13725495
13.80802536;2.09803915
13.80802536;2.17647052
13.81201553;2.56862736
13.81631565;2.98039222
13.82019901;3.33333325
13.82019901;2.92156863
13.82434368;1.98039210
13.82824326;1.90196073
13.83240509;2.47058821
13.83240509;2.68627453
13.83649254;3.17647052
13.84072781;3.49019599
13.84072781;2.45098042
13.84491444;1.92156863
13.84889507;1.94117641
13.85300827;2.78431368
13.85300827;2.82352948
13.85717773;3.27450991
13.86126518;3.31372547
13.86542702;2.17647052
13.86542702;1.50980389
13.86940002;1.98039210
13.87346363;2.82352948
13.87755108;3.11764717
13.87755108;3.35294127
13.88144207;3.31372547
13.88571835;2.21568632
13.88571835;1.68627453
13.88976574;2.39215684
13.89400864;3.05882359
13.89805603;3.15686274
13.89805603;3.19607854
13.90228271;2.74509811
13.90621471;2.09803915
13.91037655;1.68627453
13.91037655;2.58823538
13.91453838;3.23529410
13.91864204;3.47058821
13.92268944;2.52941179
13.92674446;2.09803915
13.93087292;2.21568632
13.93087292;2.76470590
13.93491936;3.50980401
13.93897438;3.58823538
13.94322681;2.82352948
13.94322681;1.96078432
13.94711781;1.78431368
13.95124626;2.39215684
13.95541573;2.98039222
13.95541573;3.31372547
13.95937252;3.41176462
13.96367359;2.39215684
13.96777821;1.84313726
13.97190666;2.56862736
13.97582245;3.19607854
13.97582245;3.72549009
13.97997570;3.54901958
13.98414516;2.52941179
13.98824120;2.05882359
13.98824120;2.52941179
13.99220657;3.07843137
13.99634361;3.54901958
14.00039864;3.74509811
14.00039864;3.45098042
14.00448608;2.54901958
14.00851631;2.09803915
14.01258850;3.39215684
14.01685619;3.78431368
14.02092743;3.80392146
14.02092743;3.15686274
14.02495766;2.52941179
14.02928352;2.25490189
14.03326511;2.88235283
14.03326511;3.41176462
14.03740978;3.56862736
14.04154682;3.23529410
14.04551125;2.29411769
14.04551125;1.70588231
14.04960728;1.94117641
14.05372810;2.39215684
14.05788994;2.94117641
14.06188774;2.70588231
14.06598377;2.01960778
14.06598377;1.47058821
14.07011223;1.92156863
14.07436371;2.90196085
14.07848454;2.84313726
14.07848454;3.52941179
14.08248234;2.74509811
14.08659458;1.35294116
14.09066582;1.21568632
14.09066582;2.37254906
14.09489346;3.47058821
14.09889030;3.47058821
14.10292149;1.47058821
14.10698414;0.96078432
14.11112118;2.00000000
14.11112118;2.98039222
14.11542225;3.49019599
14.11939526;3.76470590
14.12370396;3.62745094
14.12370396;2.86274505
14.12775898;3.47058821
14.13179016;4.96078444
14.13574696;4.96078444
14.13574696;4.96078444
14.13978481;4.96078444
14.14399624;4.96078444
14.14812469;4.96078444
14.15205669;4.96078444
14.15636539;4.47058821
14.15636539;3.13725495
14.16038799;2.03921580
14.16445160;0.82352942
14.16848183;0.00000000
14.16848183;0.09803922
14.17254543;0.86274511
14.17669868;1.43137252
14.18090057;1.78431368
14.18090057;1.49019611
14.18503761;1.07843137
14.18917465;0.56862748
14.19316387;1.90196073
14.19728470;2.41176462
14.20140553;2.27450991
14.20140553;1.47058821
14.20540333;1.01960790
14.20944977;0.76470590
14.21349716;1.41176474
14.21349716;2.25490189
14.21758461;2.66666675
14.22189331;2.37254906
14.22586632;1.64705884
14.22586632;0.98039216
14.22970104;1.37254906
14.23396015;2.09803915
14.23396015;2.50980401
14.23811340;2.62745094
14.24225044;2.35294127
14.24622345;1.43137252
14.24622345;1.00000000
14.25039387;2.09803915
14.25448990;2.60784316
14.25861835;2.70588231
14.25861835;3.23529410
14.26278782;2.27450991
14.26690006;1.43137252
14.27102089;1.74509799
14.27102089;2.50980401
14.27492046;2.80392146
14.27909851;3.19607854
14.27909851;2.72549009
14.28304672;1.80392158
14.28721619;1.76470590
14.29133701;2.17647052
14.29133701;2.76470590
14.29537582;3.50980401
14.29949665;3.33333325
14.30362511;2.74509811
14.30362511;2.47058821
14.30774593;1.98039210
14.31175137;2.58823538
14.31585598;3.45098042
14.31585598;3.56862736
14.31996822;3.58823538
14.32407284;3.25490189
14.32407284;2.33333325
14.32820129;2.25490189
14.33210850;3.43137264
14.33627892;3.70588231
14.33627892;4.01960802
14.34048939;4.17647076
14.34456921;3.27450991
14.34876347;2.74509811
14.34876347;3.47058821
14.35271168;3.90196085
14.35684872;4.29411745
14.36096954;4.74509811
14.36096954;4.17647076
14.36529446;3.35294127
14.36939907;3.43137264
14.36939907;3.88235283
14.37340450;4.25490189
14.37748432;4.92156839
14.38154793;4.84313726
14.38154793;3.86274505
14.38561058;3.35294127
14.38978863;3.31372547
14.39379501;3.76470590
14.39379501;4.31372547
14.39798927;4.47058821
14.40210152;3.94117641
14.40618896;2.54901958
14.41027641;2.50980401
14.41425800;3.17647052
14.41425800;3.60784316
14.41839504;3.15686274
14.42243385;2.49019599
14.42664433;1.62745094
14.42664433;1.05882359
14.43064213;1.70588231
14.43477058;2.11764717
14.43890762;2.27450991
14.43890762;2.01960778
14.44287300;1.27450979
14.44696045;0.84313726
14.45108986;1.56862748
14.45507908;2.31372547
14.45912552;2.58823538
14.45912552;2.56862736
14.46328735;1.86274505
14.46749783;1.50980389
14.47161865;2.03921580
14.47161865;2.50980401
14.47564125;3.29411769
14.47975349;3.50980401
14.48389053;2.70588231
14.48389053;1.72549021
14.48803520;1.56862748
14.49214745;2.41176462
14.49628448;3.19607854
14.50028229;3.29411769
14.50438690;2.11764717
14.50438690;1.31372547
14.50845814;1.58823526
14.51245594;2.43137264
14.51648617;2.92156863
14.51648617;3.00000000
14.52059078;2.66666675
14.52500629;1.70588231
14.52897930;1.07843137
14.52897930;1.86274505
14.53304195;2.50980401
14.53717136;2.82352948
14.54133224;2.45098042
14.54554272;1.35294116
14.54951668;1.01960790
14.54951668;1.96078432
14.55362892;2.64705873
14.55777359;3.35294127
14.56188583;3.00000000
14.56188583;1.76470590
14.56586742;0.70588237
14.57000446;1.05882359
14.57408428;1.98039210
14.57408428;3.03921580
14.57821274;2.90196085
14.58236599;2.43137264
14.58629799;0.88235295
14.59035301;0.90196079
14.59463787;1.50980389
14.59463787;2.45098042
14.59877491;2.49019599
14.60274792;1.41176474
14.60682774;0.43137255
14.60682774;0.05882353
14.61096478;0.60784316
14.61506844;1.70588231
14.61917305;2.29411769
14.61917305;2.01960778
14.62339973;1.25490201
14.62731552;0.43137255
14.63144493;0.88235295
14.63554859;1.80392158
14.63953781;2.17647052
14.63953781;1.90196073
14.64377308;1.23529410
14.64781189;0.56862748
14.65184212;0.70588237
14.65184212;1.23529410
14.65583229;2.19607854
14.66009998;2.09803915
14.66424561;1.39215684
14.66424561;0.80392158
14.66816902;0.45098040
14.67230606;1.13725495
14.67636967;2.39215684
14.68052292;2.00000000
14.68458557;1.23529410
14.68458557;0.86274511
14.68877983;1.03921568
14.69275379;1.78431368
14.69700527;2.43137264
14.69700527;2.72549009
14.70113373;2.03921580
14.70527077;1.50980389
14.70939922;0.86274511
14.70939922;1.23529410
14.71332359;1.66666663
14.71734619;2.41176462
14.71734619;2.58823538
14.72156429;1.88235295
14.72559547;1.41176474
14.72961712;1.07843137
14.72961712;1.70588231
14.73359013;2.35294127
14.73790741;2.98039222
14.74203682;2.58823538
14.74203682;1.56862748
14.74601746;1.07843137
14.75022888;1.05882359
14.75416851;1.92156863
14.75416851;2.66666675
14.75843716;3.15686274
14.76231956;2.41176462
14.76231956;1.62745094
14.76648998;1.35294116
14.77052021;1.72549021
14.77468967;2.49019599
14.77468967;3.07843137
14.77876091;3.17647052
14.78286552;2.13725495
14.78701878;1.74509799
14.78701878;1.47058821
14.79115582;2.03921580
14.79526806;2.49019599
14.79918385;3.05882359
14.79918385;3.03921580
14.80339432;1.78431368
14.80752373;1.56862748
14.80752373;1.50980389
14.81164360;2.07843137
14.81560040;2.76470590
14.81969643;3.37254906
14.81969643;2.94117641
14.82371902;1.72549021
14.82797909;1.15686274
14.83201694;1.76470590
14.83201694;2.58823538
14.83613014;3.00000000
14.84025002;3.21568632
14.84437943;2.43137264
14.84437943;1.56862748
14.84851646;1.60784316
14.85264492;2.60784316
14.85264492;3.03921580
14.85659313;3.33333325
14.86075497;3.27450991
14.86489964;2.43137264
14.86489964;1.90196073
14.86902046;1.96078432
14.87298584;2.72549009
14.87716389;3.33333325
14.87716389;3.62745094
14.88121891;3.41176462
14.88524914;2.64705873
14.88949203;2.09803915
14.88949203;2.66666675
14.89340019;3.29411769
14.89751244;3.56862736
14.89751244;3.49019599
14.90177250;2.90196085
14.90574551;2.17647052
14.90988255;1.78431368
14.90988255;2.31372547
14.91401958;2.88235283
14.91814804;3.09803915
14.92226887;3.19607854
14.92226887;2.41176462
14.92626667;1.47058821
14.93038654;1.58823526
14.93449974;2.82352948
14.93860340;3.23529410
14.94273186;2.82352948
14.94273186;1.70588231
14.94661522;1.00000000
14.95081806;1.52941179
14.95495510;2.25490189
14.95495510;3.00000000
14.95883751;3.27450991
14.96317959;2.62745094
14.96725941;1.52941179
14.96725941;1.25490201
14.97138786;1.72549021
14.97552490;2.35294127
14.97951412;2.66666675
14.98363495;2.01960778
14.98774719;1.92156863
14.98774719;2.70588231
14.99189281;4.17647076
14.99588203;4.96078444
14.99998665;4.96078444
14.99998665;4.96078444
15.00409889;4.96078444
15.00815392;4.96078444
15.01220036;4.96078444
15.01220036;4.96078444
15.01628017;4.96078444
15.02033520;4.70588255
15.02455425;1.03921568
15.02876472;0.00000000
15.03277016;0.23529412
15.03277016;0.70588237
15.03688335;1.25490201
15.04102802;1.45098042
15.04514027;0.80392158
15.04514027;0.25490198
15.04927731;0.43137255
15.05327511;1.17647064
15.05740356;1.78431368
15.05740356;2.05882359
15.06168842;1.74509799
15.06557178;0.86274511
15.06960201;0.90196079
15.07360744;1.43137252
15.07784271;1.88235295
15.07784271;2.09803915
15.08187294;1.43137252
15.08588791;0.68627453
15.09024525;0.47058824
15.09024525;1.13725495
15.09424305;1.82352936
15.09837246;2.33333325
15.10252571;2.29411769
15.10252571;1.50980389
15.10644913;1.07843137
15.11065197;1.17647064
15.11473179;2.21568632
15.11889267;2.74509811
15.12298870;2.52941179
15.12298870;1.54901958
15.12694550;0.92156863
15.13105774;1.49019611
15.13510513;2.37254906
15.13510513;2.96078420
15.13908672;3.00000000
15.14322376;2.05882359
15.14746666;1.31372547
15.14746666;1.33333337
15.15156269;2.23529410
15.15573215;2.74509811
15.15973854;2.96078420
15.16385078;2.05882359
15.16798782;1.47058821
15.16798782;1.78431368
15.17214966;2.60784316
15.17622089;3.19607854
15.18018532;3.39215684
15.18018532;2.92156863
15.18436337;2.23529410
15.18840218;2.01960778
15.19253063;2.74509811
15.19253063;3.33333325
15.19655323;3.70588231
15.20055866;3.78431368
15.20485210;2.47058821
15.20871830;2.60784316
15.21292877;3.54901958
15.21292877;4.05882359
15.21713161;4.31372547
15.22126865;4.17647076
15.22540569;3.35294127
15.22540569;3.00000000
15.22937870;3.27450991
15.23350716;4.05882359
15.23761940;4.74509811
15.23761940;4.96078444
15.24172401;4.33333349
15.24589348;3.64705873
15.24589348;3.15686274
15.24985027;3.52941179
15.25397110;4.90196085
15.25811577;4.90196085
15.25811577;4.49019623
15.26215458;3.39215684
15.26622581;3.17647052
15.27021599;3.50980401
15.27021599;3.70588231
15.27442646;3.56862736
15.27862072;4.13725471
15.28276539;3.54901958
15.28276539;2.58823538
15.28673077;2.25490189
15.29088402;2.29411769
15.29088402;2.54901958
15.29501247;2.94117641
15.29914188;2.72549009
15.30332756;2.52941179
15.30332756;1.50980389
15.30728436;0.78431374
15.31138897;1.43137252
15.31560802;2.00000000
15.31560802;2.17647052
15.31960487;2.17647052
15.32374191;0.98039216
15.32787132;0.25490198
15.32787132;0.64705884
15.33183575;1.25490201
15.33600521;1.86274505
15.33600521;2.31372547
15.33995438;1.94117641
15.34395981;0.76470590
15.34821987;0.37254903
15.34821987;0.58823532
15.35224247;1.58823526
15.35628891;2.15686274
15.36043453;2.19607854
15.36043453;1.76470590
15.36453056;0.96078432
15.36865044;0.45098040
15.37277985;1.41176474
15.37277985;1.92156863
15.37681770;2.07843137
15.38099575;2.52941179
15.38099575;1.64705884
15.38493633;1.07843137
15.38924503;1.19607842
15.39304638;1.88235295
15.39304638;2.15686274
15.39732265;2.62745094
15.40149212;2.21568632
15.40564537;1.60784316
15.40564537;1.01960790
15.40961933;1.27450979
15.41374779;1.96078432
15.41784382;2.35294127
15.41784382;2.49019599
15.42200565;2.25490189
15.42607689;1.41176474
15.42607689;0.78431374
15.43021393;1.82352936
15.43421173;2.19607854
15.43852043;2.68627453
15.43852043;2.78431368
15.44263268;1.82352936
15.44662189;0.88235295
15.45068550;1.25490201
15.45068550;1.74509799
15.45483875;2.56862736
15.45895958;2.82352948
15.46298981;1.47058821
15.46688938;1.27450979
15.47120667;1.47058821
15.47120667;2.37254906
15.47517967;2.70588231
15.47921848;2.56862736
15.48335552;2.23529410
15.48335552;1.27450979
15.48753262;1.00000000
15.49162102;2.05882359
15.49589729;2.43137264
15.49589729;2.56862736
15.49985409;2.66666675
15.50401497;1.68627453
15.50810337;1.33333337
15.51223183;1.88235295
15.51632786;2.45098042
15.51632786;2.84313726
15.52037525;2.35294127
15.52438068;1.49019611
15.52833748;1.31372547
15.52833748;1.41176474
15.53243351;1.92156863
15.53660297;2.56862736
15.54067421;2.68627453
15.54067421;2.33333325
15.54489326;1.64705884
15.54897308;1.09803927
15.55298710;2.50980401
15.55723858;2.72549009
15.56135941;2.86274505
15.56135941;2.33333325
15.56550407;1.33333337
15.56951046;1.01960790
15.57354069;2.00000000
15.57354069;2.29411769
15.57758808;2.45098042
15.58178997;2.72549009
15.58600903;1.84313726
15.58600903;1.11764705
15.58971214;1.70588231
15.59384918;2.25490189
15.59810066;2.94117641
15.60222149;2.43137264
15.60629272;1.60784316
15.60629272;1.25490201
15.61036396;1.84313726
15.61454964;2.27450991
15.61858845;2.92156863
15.61858845;2.80392146
15.62308598;2.11764717
15.62678051;1.54901958
15.63101578;1.60784316
15.63101578;2.25490189
15.63505459;2.62745094
15.63912582;2.92156863
15.64330387;1.56862748
15.64726067;1.13725495
15.65134048;1.64705884
15.65134048;2.19607854
15.65547752;2.64705873
15.65944195;3.03921580
15.66355419;2.45098042
15.66355419;1.49019611
15.66774845;1.33333337
15.67186928;2.07843137
15.67599773;2.50980401
15.67599773;2.94117641
15.67996311;3.01960778
15.68438721;2.21568632
15.68836021;1.43137252
15.69251347;2.31372547
15.69658470;2.86274505
15.69658470;3.07843137
15.70046806;3.00000000
15.70471096;2.17647052
15.70887280;1.68627453
15.70887280;2.00000000
15.71282959;2.76470590
15.71667194;3.19607854
15.72084141;3.13725495
15.72084141;2.60784316
15.72509289;1.94117641
15.72918892;1.66666663
15.73316193;3.03921580
15.73729038;3.50980401
15.74145222;3.43137264
15.74145222;2.60784316
15.74556446;2.07843137
15.74949646;2.13725495
15.75367451;2.80392146
15.75367451;3.37254906
15.75775433;3.62745094
15.76194096;3.37254906
15.76613522;2.41176462
15.76613522;2.17647052
15.77010822;2.58823538
15.77417088;3.27450991
15.77417088;3.74509811
15.77829170;3.66666675
15.78246117;2.98039222
15.78649235;1.98039210
15.78649235;1.76470590
15.79062843;2.35294127
15.79470825;2.76470590
15.79880428;3.13725495
15.79880428;3.21568632
15.80282688;2.33333325
15.80695534;1.56862748
15.81122398;1.47058821
15.81122398;2.19607854
15.81536007;2.70588231
15.81948090;2.90196085
15.81948090;2.80392146
15.82341290;1.96078432
15.82754230;1.41176474
15.83171177;1.96078432
15.83171177;2.54901958
15.83588123;2.90196085
15.83983803;2.80392146
15.84390926;2.21568632
15.84390926;1.41176474
15.84798145;1.01960790
15.85207748;1.66666663
15.85616493;2.35294127
15.85616493;2.76470590
15.86017895;2.66666675
15.86431599;2.05882359
15.86431599;1.80392158
15.86844444;2.47058821
15.87264729;3.98039222
15.87675953;4.96078444
15.87675953;4.96078444
15.88078213;4.96078444
15.88501740;4.96078444
15.88906384;4.96078444
15.88906384;4.96078444
15.89302921;4.96078444
15.89733791;4.96078444
15.90136814;4.72549009
15.90136814;2.96078420
15.90519428;1.07843137
15.90933132;0.19607843
15.90933132;0.43137255
15.91345119;0.80392158
15.91758060;1.43137252
15.92170048;0.96078432
15.92170048;0.92156863
15.92587852;0.62745100
15.92982769;0.49019608
15.93405437;1.01960790
15.93405437;1.92156863
15.93828964;2.70588231
15.94227886;2.00000000
15.94648170;0.52941179
15.95042229;0.86274511
15.95457554;1.62745094
15.95457554;2.21568632
15.95875359;2.58823538
15.96284962;2.03921580
15.96658516;1.13725495
15.96658516;0.43137255
15.97081184;1.29411769
15.97501469;2.11764717
15.97907734;2.66666675
15.97907734;2.82352948
15.98327160;1.66666663
15.98721218;1.25490201
15.99136543;1.64705884
15.99545383;2.19607854
15.99975395;2.72549009
15.99975395;2.96078420
16.00375175;1.84313726
16.00781441;1.43137252
16.01191139;1.52941179
16.01191139;2.33333325
16.01597404;3.09803915
16.02011871;3.03921580
16.02433777;2.23529410
16.02433777;1.45098042
16.02808952;1.66666663
16.03220367;2.52941179
16.03643036;3.00000000
16.04046059;3.21568632
16.04466248;2.52941179
16.04466248;1.80392158
16.04873466;1.94117641
16.05273247;2.66666675
16.05685234;3.35294127
16.05685234;3.52941179
16.06108856;3.37254906
16.06521606;2.21568632
16.06932068;1.90196073
16.06932068;2.82352948
16.07331085;3.33333325
16.07739830;3.80392146
16.08150291;3.60784316
16.08574486;2.74509811
16.08979988;2.64705873
16.08979988;3.01960778
16.09379005;3.96078420
16.09789467;4.84313726
16.10203171;4.52941179
16.10203171;3.62745094
16.10623360;2.88235283
16.11048508;3.41176462
16.11437607;4.17647076
16.11437607;4.76470566
16.11851311;4.92156839
16.12254333;4.64705896
16.12663269;3.37254906
16.13076019;3.78431368
16.13488197;4.15686274
16.13488197;4.96078444
16.13898468;4.94117641
16.14283562;4.11764717
16.14714432;3.11764717
16.14714432;2.66666675
16.15125656;3.56862736
16.15522194;4.01960802
16.15927696;4.19607830
16.15927696;3.74509811
16.16334915;2.80392146
16.16762543;2.15686274
16.17177773;2.47058821
16.17581749;2.88235283
16.17999458;2.90196085
16.17999458;2.23529410
16.18391800;1.27450979
16.18802261;0.49019608
16.19216728;0.96078432
16.19216728;1.64705884
16.19635391;2.05882359
16.20038414;2.15686274
16.20441437;1.47058821
16.20441437;0.74509805
16.20843697;0.43137255
16.21273804;1.21568632
16.21672821;1.94117641
16.22074890;1.88235295
16.22491074;1.03921568
16.22491074;0.25490198
16.22905731;0.35294119
16.23315239;1.29411769
16.23738861;1.92156863
16.23738861;2.03921580
16.24140167;1.80392158
16.24552155;0.96078432
16.24965096;0.43137255
16.24965096;1.25490201
16.25361633;1.80392158
16.25776100;2.33333325
16.25776100;2.49019599
16.26188278;1.56862748
16.26601028;0.62745100
16.27006531;0.84313726
16.27006531;1.76470590
16.27403069;2.17647052
16.27806091;2.50980401
16.28223038;2.37254906
16.28223038;1.76470590
16.28637505;1.19607842
16.29021072;1.19607842
16.29442787;1.96078432
16.29442787;2.25490189
16.29861450;2.52941179
16.30272675;2.25490189
16.30272675;1.43137252
16.30669975;0.98039216
16.31085396;1.56862748
16.31496620;2.09803915
16.31496620;2.56862736
16.31925774;2.66666675
16.32332993;1.94117641
16.32740974;1.21568632
16.32740974;1.15686274
16.33154678;2.00000000
16.33558464;2.62745094
16.33959198;2.92156863
16.33959198;2.60784316
16.34366989;1.58823526
16.34784889;1.05882359
16.34784889;1.41176474
16.35169983;2.25490189
16.35592651;2.70588231
16.36009598;2.72549009
16.36009598;2.21568632
16.36424828;1.37254906
16.36821365;1.15686274
16.37233543;1.78431368
16.37233543;2.31372547
16.37645531;2.74509811
16.38044548;2.84313726
16.38476181;2.17647052
16.38476181;1.58823526
16.38887405;1.35294116
16.39292145;1.82352936
16.39292145;2.31372547
16.39690971;2.72549009
16.40094185;2.58823538
16.40523338;1.82352936
16.40523338;1.27450979
16.40924835;1.49019611
16.41314697;2.15686274
16.41731644;2.80392146
16.41731644;3.01960778
16.42139626;2.47058821
16.42556572;1.74509799
16.42966270;1.19607842
16.42966270;1.92156863
16.43363571;2.41176462
16.43778801;2.64705873
16.43778801;2.74509811
16.44190979;2.13725495
16.44614410;1.72549021
16.45032310;1.52941179
16.45032310;2.31372547
16.45435333;2.66666675
16.45851517;3.03921580
16.46258545;3.03921580
16.46258545;2.17647052
16.46657562;1.45098042
16.47073746;1.88235295
16.47482491;2.90196085
16.47868347;3.11764717
16.48294258;2.82352948
16.48294258;2.25490189
16.48695755;1.58823526
16.49106979;1.98039210
16.49517441;2.74509811
16.49517441;3.11764717
16.49930191;2.76470590
16.50328445;2.54901958
16.50787163;1.62745094
16.50787163;1.58823526
16.51182747;2.47058821
16.51585770;2.58823538
16.51998711;3.05882359
16.52383804;2.03921580
16.52800751;1.74509799
16.52800751;1.92156863
16.53211212;2.47058821
16.53637123;3.17647052
16.54005814;3.25490189
16.54005814;2.88235283
16.54421997;2.25490189
16.54847908;1.52941179
16.55259132;1.84313726
16.55259132;2.92156863
16.55654716;3.19607854
16.56070137;3.23529410
16.56482124;1.84313726
16.56895828;1.52941179
16.57319450;2.50980401
16.57319450;2.82352948
16.57734680;3.33333325
16.58129692;2.98039222
16.58538437;2.19607854
16.58538437;2.03921580
16.58945465;1.49019611
16.59362602;2.68627453
16.59776115;3.41176462
16.59776115;3.03921580
16.60168648;2.43137264
16.60581398;2.27450991
16.60977936;2.50980401
16.61397362;2.92156863
16.61825752;3.31372547
16.61825752;3.11764717
16.62226486;2.86274505
16.62627792;2.68627453
16.63038254;2.62745094
16.63038254;3.43137264
16.63446999;3.64705873
16.63859177;3.21568632
16.64270401;3.05882359
16.64270401;2.37254906
16.64662743;2.23529410
16.65076447;2.84313726
16.65492630;3.72549009
16.65900612;3.54901958
16.66325760;2.88235283
16.66325760;2.17647052
16.66727066;2.25490189
16.67138290;2.64705873
16.67551231;3.01960778
16.67551231;3.31372547
16.67966652;2.92156863
16.68360519;2.17647052
16.68772697;1.86274505
16.68772697;1.50980389
16.69185448;2.19607854
16.69596863;2.94117641
16.69989967;3.00000000
16.70422554;2.39215684
16.70814896;1.43137252
16.70814896;1.43137252
16.71230316;2.19607854
16.71633339;2.66666675
16.72047043;2.94117641
16.72047043;2.50980401
16.72462273;1.58823526
16.72873497;1.21568632
16.73288918;1.62745094
16.73288918;2.03921580
16.73685455;2.86274505
16.74098206;2.86274505
16.74506187;1.43137252
16.74925613;1.72549021
16.75339317;3.27450991
16.75339317;4.84313726
16.75737572;4.96078444
16.76143837;4.96078444
16.76551819;4.96078444
16.76551819;4.96078444
16.76963806;4.96078444
16.77362823;4.96078444
16.77771568;4.96078444
16.77771568;4.96078444
16.78187752;4.09803915
16.78603935;2.39215684
16.78603935;0.82352942
16.79024124;0.41176471
16.79422188;0.43137255
16.79838371;0.94117647
16.79838371;0.74509805
16.80248833;0.41176471
16.80636406;0.00000000
16.81072044;0.17647059
16.81072044;0.82352942
16.81474304;1.56862748
16.81888008;2.11764717
16.82296753;2.01960778
16.82296753;1.00000000
16.82687569;0.50980395
16.83111191;0.88235295
16.83111191;1.41176474
16.83506775;2.13725495
16.83934402;2.37254906
16.84334946;1.96078432
16.84334946;1.03921568
16.84745407;0.74509805
16.85160828;1.25490201
16.85576057;1.88235295
