8.35441494;2.09803915
8.35841274;1.88235295
8.36272144;2.45098042
8.36272144;3.07843137
8.36669445;2.84313726
8.37083149;2.35294127
8.37496853;1.68627453
8.37496853;0.94117647
8.37893295;1.50980389
8.38306236;2.68627453
8.38306236;2.82352948
8.38717461;2.50980401
8.39125443;1.92156863
8.39526844;1.11764705
8.39526844;1.33333337
8.39935589;1.92156863
8.40351772;3.03921580
8.40762138;2.96078420
8.40762138;2.37254906
8.41160297;1.86274505
8.41577244;1.88235295
8.41995907;2.27450991
8.41995907;2.98039222
8.42407131;3.13725495
8.42820835;3.52941179
8.43222237;2.27450991
8.43634319;2.19607854
8.44043922;2.76470590
8.44043922;3.17647052
8.44458389;3.64705873
8.44865513;3.66666675
8.45263672;2.98039222
8.45263672;2.37254906
8.45674896;2.35294127
8.46091080;2.88235283
8.46500683;3.62745094
8.46500683;3.50980401
8.46896362;3.21568632
8.47314167;2.43137264
8.47727776;2.54901958
8.48146439;3.17647052
8.48545361;3.37254906
8.48545361;2.90196085
8.48986149;2.29411769
8.49371147;2.21568632
8.49786472;2.09803915
8.49786472;2.25490189
8.50182152;3.23529410
8.50586796;3.68627453
8.51007938;3.54901958
8.51007938;2.66666675
8.51415062;1.96078432
8.51824665;1.54901958
8.52226067;2.00000000
8.52643871;1.45098042
8.53056717;0.49019608
8.53056717;0.01960784
8.53463078;0.19607843
8.53864479;0.03921569
8.54280567;0.13725491
8.54280567;0.03921569
8.54695892;0.03921569
8.55108833;0.58823532
8.55521679;0.29411766
8.55521679;0.56862748
8.55918217;1.78431368
8.56333542;2.84313726
8.56743908;3.72549009
8.57158470;3.52941179
8.57566452;2.50980401
8.57566452;2.15686274
8.57962132;2.64705873
8.58376598;3.01960778
8.58788681;3.39215684
8.58788681;3.05882359
8.59194183;2.60784316
8.59600449;1.58823526
8.60019112;1.98039210
8.60019112;2.80392146
8.60427856;3.43137264
8.60845661;3.35294127
8.61243820;1.96078432
8.61656666;1.50980389
8.62069511;1.84313726
8.62069511;2.68627453
8.62484074;2.76470590
8.62881374;2.84313726
8.63293457;2.29411769
8.63293457;2.01960778
8.63703823;1.68627453
8.64111805;2.37254906
8.64526367;3.01960778
8.64526367;3.05882359
8.64922810;2.52941179
8.65337372;2.03921580
8.65749359;1.45098042
8.66168785;2.03921580
8.66564465;3.03921580
8.66564465;2.62745094
8.66984749;2.15686274
8.67395973;1.25490201
8.67808056;0.90196079
8.67808056;1.33333337
8.68205357;1.74509799
8.68621540;2.49019599
8.69031906;2.19607854
8.69031906;1.45098042
8.69445610;0.88235295
8.69849491;1.07843137
8.70275497;2.41176462
8.70674419;2.09803915
8.71086502;1.52941179
8.71086502;0.90196079
8.71498585;0.13725491
8.71893406;0.29411766
8.72304630;0.92156863
8.72304630;1.92156863
8.72719193;2.17647052
8.73124695;1.25490201
8.73547363;0.37254903
8.73547363;0.47058824
8.73940563;1.01960790
8.74352646;1.66666663
8.74768829;1.90196073
8.74768829;1.15686274
8.75184155;0.05882353
8.75583935;0.39215687
8.75583935;0.52941179
8.75994301;0.94117647
8.76402283;1.72549021
8.76811886;1.92156863
8.76811886;1.07843137
8.77215767;0.23529412
8.77624512;0.25490198
8.78035736;0.68627453
8.78035736;1.66666663
8.78450298;1.90196073
8.78868866;1.35294116
8.79269505;0.21568628
8.79269505;0.05882353
8.79681492;0.29411766
8.80093575;0.52941179
8.80093575;1.43137252
8.80508137;1.82352936
8.80905437;1.76470590
8.81318283;0.94117647
8.81318283;0.31372550
8.81733608;0.84313726
8.82144070;1.82352936
8.82563496;2.94117641
8.82563496;3.17647052
8.82972240;2.68627453
8.83371258;2.05882359
8.83782482;1.66666663
8.83782482;2.13725495
8.84194469;3.07843137
8.84592628;4.13725471
8.84592628;4.45098019
8.85005474;3.80392146
8.85419178;3.09803915
8.85823059;3.39215684
8.85823059;4.39215708
8.86223698;4.86274529
8.86639023;4.84313726
8.87056828;4.35294104
8.87056828;3.31372547
8.87471294;2.41176462
8.87869453;2.70588231
8.88281536;4.09803915
8.88281536;4.86274529
8.88693523;4.52941179
8.89099884;3.49019599
8.89099884;2.39215684
8.89501286;1.84313726
8.89914131;2.60784316
8.90326214;4.35294104
8.90326214;4.84313726
8.90735817;4.64705896
8.91147900;3.86274505
8.91563988;2.82352948
8.91563988;2.37254906
8.91968727;4.00000000
8.92380810;4.96078444
8.92793655;4.98039198
8.92793655;4.49019623
8.93194199;3.39215684
8.93603039;3.07843137
8.94018364;3.88235283
8.94431210;4.90196085
8.94849873;4.78431368
8.94849873;3.64705873
8.95256996;2.00000000
8.95670700;0.76470590
8.96067142;1.07843137
8.96067142;2.54901958
8.96482468;3.66666675
8.96886349;3.49019599
8.97292709;1.96078432
8.97292709;0.56862748
8.97706413;0.92156863
8.98119259;2.43137264
8.98536205;4.45098019
8.98924541;3.47058821
8.99339104;2.19607854
8.99339104;1.52941179
8.99758530;1.92156863
9.00171375;3.23529410
9.00570297;4.37254906
9.00570297;4.49019623
9.00983238;3.52941179
9.01391125;2.35294127
9.01798344;1.60784316
9.01798344;2.17647052
9.02207088;3.96078420
9.02610111;4.29411745
9.03032017;2.76470590
9.03437519;1.88235295
9.03867626;1.50980389
9.03867626;2.84313726
9.04271507;4.78431368
9.04668808;4.96078444
9.05080795;4.60784292
9.05080795;3.43137264
9.05493736;2.52941179
9.05898380;3.01960778
9.06310463;4.92156839
9.06310463;4.98039198
9.06724167;4.70588255
9.07147694;3.29411769
9.07547474;1.70588231
9.07944775;1.74509799
9.08370781;2.50980401
9.08370781;3.41176462
9.08769703;3.52941179
9.09186649;2.21568632
9.09579849;0.68627453
9.09579849;0.70588237
9.09992790;0.82352942
9.10412216;1.88235295
9.10817719;1.68627453
9.10817719;0.96078432
9.11216640;0.01960784
9.11630344;0.00000000
9.12035847;2.23529410
9.12451172;3.01960778
9.12870598;1.84313726
9.12870598;1.45098042
9.13267136;0.54901963
9.13676739;0.25490198
9.14089584;0.82352942
9.14089584;1.56862748
9.14505768;2.11764717
9.14906311;1.86274505
9.15319157;0.80392158
9.15319157;0.29411766
9.15723038;0.37254903
9.16135120;1.50980389
9.16539001;2.29411769
9.16969109;2.11764717
9.17368031;1.49019611
9.17368031;1.05882359
9.17782497;0.84313726
9.18181515;1.56862748
9.18587017;2.23529410
9.18587017;2.80392146
9.19005585;2.72549009
9.19420910;2.25490189
9.19827271;1.35294116
9.19827271;1.47058821
9.20222950;2.13725495
9.20636654;2.54901958
9.21047878;2.86274505
9.21047878;2.03921580
9.21463203;1.45098042
9.21872807;1.03921568
9.21872807;1.33333337
9.22273350;1.96078432
9.22688675;2.05882359
9.23105717;1.76470590
9.23105717;1.19607842
9.23520184;0.78431374
9.23918343;1.05882359
9.24329567;1.94117641
9.24329567;3.03921580
9.24744892;3.52941179
9.25158596;2.39215684
9.25569820;1.11764705
9.25569820;0.60784316
9.25969601;0.31372550
9.26374340;0.31372550
9.26374340;0.09803922
9.26786327;0.03921569
9.27188587;0.00000000
9.27599812;0.00000000
9.27599812;0.01960784
9.28010273;0.00000000
9.28423119;0.05882353
9.28838444;0.00000000
9.28838444;0.03921569
9.29242325;0.15686275
9.29668331;0.31372550
9.30068111;0.92156863
9.30068111;2.00000000
9.30479336;2.68627453
9.30894661;3.05882359
9.30894661;4.21568632
9.31291962;4.94117641
9.31705666;4.74509811
9.32119370;4.60784292
9.32119370;4.80392170
9.32515049;4.96078444
9.32923794;4.64705896
9.33337498;3.54901958
9.33337498;2.27450991
9.33748722;1.82352936
9.34169006;1.88235295
9.34560585;2.21568632
9.34560585;2.19607854
9.34971809;1.62745094
9.35393715;0.76470590
9.35393715;0.39215687
9.35801697;1.07843137
9.36198997;1.72549021
9.36611843;2.43137264
9.36611843;3.72549009
9.37027168;3.62745094
9.37439251;2.96078420
9.37851334;2.80392146
9.37851334;3.50980401
9.38264179;4.23529434
9.38665581;4.50980377
9.39075184;4.37254906
9.39075184;3.52941179
9.39490509;2.23529410
9.39886189;1.78431368
9.40300655;2.23529410
9.40708637;2.74509811
9.41127300;3.01960778
9.41127300;2.56862736
9.41520500;2.31372547
9.41940689;2.05882359
9.42366695;1.54901958
9.42366695;0.80392158
9.42762375;0.33333334
9.43181801;0.09803922
9.43580818;0.03921569
9.43580818;0.03921569
9.43987083;0.05882353
9.44400787;0.03921569
9.44818592;0.01960784
9.45220852;0.00000000
9.45632076;0.03921569
9.45632076;0.25490198
9.46038342;1.35294116
9.46449566;1.82352936
9.46869850;2.11764717
9.46869850;1.66666663
9.47261429;1.15686274
9.47677612;0.54901963
9.48087215;0.78431374
9.48087215;0.98039216
9.48500061;0.74509805
9.48899841;0.90196079
9.49315166;0.23529412
9.49723148;0.13725491
9.50135231;0.11764706
9.50135231;0.23529412
9.50536633;0.27450982
9.50960159;0.09803922
9.51364040;0.00000000
9.51364040;0.09803922
9.51781750;0.03921569
9.52195454;0.13725491
9.52590370;0.21568628
9.52590370;0.05882353
9.52999115;0.09803922
9.53411961;0.00000000
9.53824902;0.33333334
9.54223824;0.66666669
9.54635906;1.01960790
9.54635906;0.78431374
9.55048752;0.60784316
9.55462456;0.29411766
9.55874538;0.27450982
9.55874538;0.94117647
9.56268501;1.13725495
9.56684685;0.41176471
9.57098389;0.54901963
9.57098389;0.82352942
9.57507133;0.25490198
9.57905293;0.41176471
9.58328056;1.05882359
9.58738422;1.41176474
9.59147167;1.72549021
9.59147167;1.47058821
9.59559250;1.07843137
9.59961510;0.86274511
9.60374355;1.21568632
9.60374355;1.50980389
9.60786438;1.92156863
9.61198521;1.98039210
9.61598301;1.72549021
9.61598301;1.60784316
9.62011909;1.96078432
9.62423229;2.19607854
9.62836075;2.27450991
9.63238335;2.05882359
9.63668346;1.92156863
9.63668346;1.90196073
9.64069748;2.25490189
9.64485931;2.39215684
9.64891434;2.50980401
9.64891434;2.41176462
9.65294456;1.82352936
9.65710640;1.37254906
9.66116142;1.52941179
9.66116142;1.72549021
9.66530704;1.33333337
9.66923046;1.29411769
9.67338371;0.76470590
9.67747211;0.84313726
9.68162537;1.15686274
9.68162537;1.47058821
9.68559837;1.66666663
9.68975163;1.78431368
9.69392109;1.64705884
9.69392109;1.37254906
9.69806671;1.68627453
9.70212936;2.11764717
9.70611095;2.58823538
9.70611095;2.09803915
9.71019840;2.05882359
9.71433544;1.54901958
9.71843147;1.45098042
9.71843147;1.52941179
9.72270012;1.96078432
9.72663212;2.19607854
9.72663212;1.88235295
9.73079300;1.64705884
9.73491383;1.47058821
9.73905087;1.41176474
9.73905087;1.60784316
9.74304008;2.31372547
9.74716949;2.17647052
9.75129032;1.68627453
9.75129032;1.49019611
9.75541878;1.11764705
9.75941658;1.33333337
9.76374149;1.84313726
9.76374149;2.07843137
9.76773167;2.05882359
9.77181911;1.56862748
9.77181911;1.41176474
9.77582455;1.43137252
9.77990437;1.58823526
9.78400040;1.96078432
9.78400040;1.94117641
9.78813744;1.66666663
9.79211044;1.54901958
9.79632092;1.15686274
9.79632092;1.21568632
9.80036831;1.58823526
9.80452919;2.07843137
9.80869961;2.33333325
9.80869961;2.33333325
9.81267262;1.90196073
9.81678486;1.37254906
9.81678486;1.60784316
9.82094669;2.17647052
9.82501793;2.62745094
9.82909775;2.43137264
9.82909775;2.05882359
9.83315277;1.41176474
9.83725643;1.31372547
9.84137726;1.50980389
9.84137726;1.96078432
9.84535027;2.23529410
9.84963512;2.25490189
9.85368156;1.88235295
9.85368156;1.56862748
9.85781860;1.76470590
9.86194706;2.21568632
9.86194706;2.62745094
9.86591244;2.43137264
9.86999989;2.27450991
9.87417793;2.15686274
9.87417793;1.82352936
9.87832355;2.21568632
9.88230419;2.88235283
9.88640881;3.33333325
9.88640881;3.29411769
9.89052105;3.07843137
9.89463329;2.74509811
9.89879513;2.52941179
9.89879513;3.00000000
9.90275192;3.25490189
9.90693760;3.45098042
9.91096020;3.41176462
9.91512966;3.13725495
9.91930771;3.31372547
9.91930771;3.82352948
9.92331409;4.11764717
9.92742634;4.33333349
9.93154621;3.82352948
9.93154621;3.35294127
9.93563461;3.09803915
9.93966484;3.50980401
9.94378567;3.92156863
9.94378567;3.96078420
9.94794655;4.05882359
9.95201874;3.90196085
9.95605755;3.50980401
9.96009541;3.68627453
9.96423244;4.33333349
9.96423244;4.33333349
9.96833706;3.96078420
9.97234249;3.72549009
9.97662735;3.07843137
9.97662735;2.94117641
9.98067379;3.09803915
9.98480320;2.94117641
9.98894787;2.31372547
9.98894787;1.45098042
9.99292088;0.49019608
9.99706650;0.00000000
10.00117016;0.01960784
10.00530720;0.00000000
10.00929737;0.03921569
10.00929737;0.00000000
10.01339245;0.07843138
10.01748085;0.43137255
10.02164268;1.49019611
10.02164268;2.37254906
10.02560711;2.60784316
10.02971172;2.84313726
10.03392982;2.56862736
10.03392982;1.98039210
10.03802586;2.21568632
10.04219627;3.03921580
10.04617691;3.49019599
10.05030632;3.19607854
10.05442619;2.50980401
10.05442619;2.35294127
10.05857182;2.43137264
10.06269264;2.98039222
10.06668186;2.92156863
10.06668186;2.62745094
10.07080269;2.31372547
10.07491493;2.01960778
10.07896996;2.03921580
10.07896996;2.49019599
10.08299255;2.86274505
10.08710480;2.88235283
10.09121704;2.50980401
10.09534550;2.09803915
10.09934330;2.29411769
10.09934330;2.58823538
10.10370159;3.05882359
10.10767460;2.84313726
10.11180305;2.72549009
10.11180305;2.00000000
10.11581707;1.56862748
10.11992168;2.05882359
10.12405014;2.56862736
10.12405014;2.76470590
10.12817097;2.88235283
10.13231659;2.33333325
10.13628960;1.45098042
10.14038563;2.05882359
10.14447308;2.47058821
10.14447308;2.50980401
10.14858532;2.62745094
10.15264893;2.11764717
10.15672016;1.60784316
10.15672016;1.86274505
10.16083241;2.45098042
10.16500187;2.47058821
10.16912270;2.09803915
10.16912270;2.09803915
10.17316151;1.72549021
10.17732334;1.50980389
10.18144321;2.13725495
10.18548203;2.13725495
10.18965244;1.62745094
10.18965244;1.70588231
10.19369030;1.37254906
10.19782734;1.21568632
10.20198059;1.76470590
10.20198059;1.86274505
10.20597839;1.49019611
10.21009922;1.31372547
10.21421146;1.33333337
10.21421146;0.72549021
10.21829128;0.74509805
10.22228050;1.31372547
10.22641754;1.31372547
10.22641754;0.78431374
10.23045635;0.88235295
10.23458481;0.74509805
10.23458481;0.17647059
10.23873043;0.41176471
10.24274445;0.80392158
10.24693871;1.01960790
10.24693871;1.19607842
10.25106716;0.92156863
10.25519657;0.41176471
10.25931644;0.43137255
10.25931644;0.76470590
10.26326561;1.35294116
10.26737785;1.13725495
10.27171135;1.33333337
10.27171135;1.00000000
10.27568436;0.94117647
10.27966595;1.21568632
10.27966595;1.80392158
10.28372860;2.43137264
10.28785801;2.49019599
10.29205990;2.70588231
10.29205990;2.66666675
10.29604149;2.33333325
10.30016994;3.13725495
10.30429935;3.72549009
10.30429935;4.00000000
10.30843639;3.88235283
10.31242561;3.64705873
10.31669331;3.45098042
10.31669331;3.50980401
10.32066631;3.90196085
10.32485294;4.41176462
10.32485294;4.29411745
10.32904720;4.66666651
10.33293819;3.82352948
10.33703423;3.33333325
10.33703423;3.23529410
10.34118748;4.39215708
10.34528351;4.76470566
10.34940434;4.70588255
10.34940434;4.58823538
10.35341835;4.29411745
10.35754681;4.17647076
10.36160183;4.64705896
10.36160183;4.98039198
10.36558342;4.88235283
10.36981869;4.66666651
10.36981869;4.72549009
10.37394714;4.15686274
10.37806797;4.29411745
10.38218880;4.39215708
10.38218880;4.52941179
10.38610458;4.17647076
10.39024925;3.60784316
10.39434528;3.00000000
10.39434528;2.90196085
10.39846611;3.05882359
10.40261936;3.62745094
10.40658474;3.47058821
10.40658474;3.50980401
10.41072083;3.05882359
10.41484165;2.72549009
10.41900349;3.13725495
10.42303371;3.82352948
10.42715454;3.62745094
10.42715454;3.62745094
10.43129158;2.90196085
10.43555164;2.33333325
10.43943405;2.70588231
10.43943405;3.11764717
10.44370270;3.15686274
10.44766712;3.27450991
10.45183659;3.00000000
10.45183659;2.88235283
10.45580959;2.31372547
10.45997143;2.35294127
10.46402645;3.13725495
10.46822071;3.09803915
10.47234154;2.86274505
10.47234154;2.64705873
10.47629833;2.37254906
10.48036957;2.92156863
10.48453903;3.47058821
10.48453903;3.13725495
10.48865986;3.05882359
10.49262524;2.72549009
10.49678612;2.21568632
10.49678612;2.19607854
10.50091553;2.90196085
10.50506878;3.35294127
10.50918865;2.92156863
10.51312923;2.62745094
10.51722527;2.17647052
10.51722527;2.29411769
10.52137852;3.01960778
10.52546692;2.86274505
10.52959538;3.09803915
10.52959538;2.72549009
10.53365040;1.90196073
10.53772163;2.09803915
10.54181767;2.66666675
10.54181767;2.86274505
10.54584026;3.01960778
10.54996872;2.78431368
10.55411434;1.78431368
10.55821800;1.80392158
10.56234741;2.27450991
10.56234741;2.45098042
10.56634426;2.39215684
10.57048130;2.19607854
10.57466793;1.74509799
10.57466793;1.82352936
10.57879639;2.29411769
10.58276176;2.64705873
10.58684063;2.74509811
10.58684063;2.76470590
10.59098625;2.54901958
10.59514809;2.27450991
10.59929276;2.82352948
10.60328197;3.37254906
10.60740280;3.29411769
10.60740280;3.37254906
10.61152363;3.01960778
10.61566067;3.29411769
10.61965847;3.17647052
10.61965847;3.49019599
10.62376213;3.64705873
10.62789917;3.47058821
10.63203621;3.33333325
10.63203621;3.13725495
10.63596821;2.49019599
10.64011383;2.84313726
10.64423466;3.35294127
10.64832211;3.52941179
10.65247536;3.09803915
10.65247536;2.82352948
10.65658760;2.62745094
10.66057682;3.15686274
10.66474724;3.49019599
10.66474724;3.11764717
10.66886711;3.11764717
10.67288208;3.03921580
10.67696095;2.62745094
10.67696095;2.52941179
10.68115520;2.92156863
10.68530083;3.29411769
10.68944550;3.52941179
10.69341087;2.96078420
10.69756413;2.72549009
10.69756413;2.84313726
10.70167637;3.00000000
10.70570660;2.62745094
10.70973778;2.05882359
10.70973778;0.96078432
10.71385002;0.03921569
10.71795368;0.01960784
10.72209072;0.11764706
10.72209072;0.41176471
10.72612190;0.03921569
10.73029137;0.00000000
10.73441982;0.01960784
10.73441982;0.29411766
10.73856544;0.96078432
10.74268532;2.00000000
10.74268532;3.15686274
10.74665928;3.60784316
10.75078773;3.60784316
10.75493240;3.45098042
10.75493240;3.37254906
10.75906181;3.58823538
10.76301003;3.94117641
10.76708984;3.56862736
10.76708984;3.72549009
10.77123451;3.41176462
10.77533913;3.03921580
10.77953339;3.13725495
10.77953339;3.84313726
10.78358841;4.15686274
10.78761101;4.15686274
10.78761101;4.13725471
10.79178047;3.82352948
10.79593372;3.19607854
10.79992294;3.31372547
10.79992294;3.62745094
10.80404377;3.74509811
10.80818081;3.23529410
10.81229305;2.98039222
10.81229305;2.50980401
10.81629944;2.68627453
10.82041168;2.78431368
10.82450771;2.98039222
10.82450771;2.86274505
10.82858658;2.56862736
10.83273220;2.29411769
10.83273220;2.15686274
10.83670521;2.01960778
10.84089184;2.47058821
10.84496307;2.58823538
10.84496307;2.90196085
10.84914875;2.70588231
10.85316277;2.41176462
10.85727501;1.76470590
10.85727501;1.94117641
10.86143684;2.60784316
10.86555767;2.70588231
10.86966133;2.45098042
10.86966133;2.45098042
10.87366772;2.00000000
10.87780476;1.45098042
10.88193321;2.41176462
10.88583279;2.25490189
10.89003563;2.27450991
10.89003563;2.05882359
10.89410686;1.52941179
10.89819431;1.52941179
10.90238094;2.27450991
10.90238094;2.07843137
10.90632915;1.88235295
10.91044998;1.82352936
10.91461945;1.54901958
10.91461945;1.23529410
10.91888714;1.23529410
10.92294216;1.72549021
10.92690754;1.47058821
10.93103600;1.29411769
10.93518162;0.94117647
10.93518162;0.50980395
10.93917942;0.92156863
10.94327545;1.31372547
10.94742870;1.37254906
10.94742870;1.15686274
10.95159817;0.92156863
10.95569420;0.35294119
10.95971680;0.49019608
10.95971680;0.88235295
10.96378803;1.15686274
10.96790028;1.23529410
10.97202110;0.98039216
10.97602654;0.37254903
10.98008156;1.07843137
10.98008156;1.62745094
10.98420238;1.84313726
10.98837185;1.86274505
10.99249268;1.60784316
10.99249268;1.47058821
10.99668694;1.35294116
11.00066853;2.05882359
11.00482178;2.58823538
11.00482178;2.72549009
11.00894165;2.90196085
11.01288223;2.62745094
11.01703548;2.70588231
11.02135277;3.39215684
11.02521133;3.78431368
11.02521133;4.03921556
11.02926636;4.09803915
11.03333759;3.49019599
11.03767109;3.15686274
11.03767109;3.45098042
11.04164410;4.11764717
11.04579830;4.25490189
11.04980373;4.37254906
11.04980373;3.98039222
11.05393219;3.66666675
11.05805302;3.31372547
11.06218147;4.23529434
11.06616306;3.96078420
11.07028389;4.05882359
11.07028389;3.78431368
11.07446194;3.15686274
11.07859039;3.07843137
11.08267784;3.21568632
11.08267784;3.72549009
11.08664322;3.54901958
11.09080505;3.33333325
11.09496593;2.74509811
11.09496593;2.47058821
11.09902096;2.74509811
11.10310936;3.43137264
11.10709858;3.49019599
11.11121941;3.13725495
11.11533165;2.50980401
11.11533165;2.47058821
11.11939526;2.88235283
11.12368774;3.33333325
11.12767696;3.33333325
11.12767696;3.33333325
11.13178921;3.05882359
11.13579559;2.66666675
11.13992405;2.80392146
11.13992405;3.05882359
11.14396286;3.05882359
11.14816475;3.21568632
11.15226078;2.29411769
11.15620995;2.00000000
11.16034698;2.17647052
11.16034698;2.98039222
11.16445065;3.01960778
11.16861248;2.86274505
11.17281532;2.54901958
11.17281532;1.84313726
11.17677975;2.05882359
11.18090820;2.54901958
11.18503761;2.90196085
11.18503761;3.27450991
11.18918228;2.96078420
11.19316387;2.66666675
11.19728470;2.21568632
11.19728470;2.47058821
11.20147896;2.80392146
11.20559120;3.11764717
11.20559120;3.17647052
11.20970345;3.07843137
11.21368504;2.66666675
11.21778107;2.58823538
11.21778107;2.66666675
11.22189331;2.98039222
11.22602177;3.23529410
11.23004436;2.96078420
11.23004436;2.72549009
11.23408318;2.17647052
11.23822784;2.05882359
11.24236488;2.60784316
11.24236488;3.27450991
11.24640369;2.60784316
11.25067997;2.60784316
11.25067997;2.29411769
11.25466156;1.98039210
11.25880623;2.13725495
11.26288605;2.70588231
11.26288605;2.90196085
11.26684284;2.74509811
11.27101231;2.50980401
11.27516556;2.00000000
11.27516556;1.68627453
11.27922916;2.29411769
11.28320217;2.74509811
11.28738785;2.62745094
11.28738785;2.33333325
11.29149246;1.92156863
11.29567814;1.43137252
11.29567814;1.31372547
11.29965973;1.96078432
11.30379677;2.03921580
11.30798244;2.31372547
11.30798244;2.27450991
11.31208706;2.05882359
11.31623173;1.56862748
11.32020569;1.92156863
11.32020569;2.43137264
11.32433414;2.56862736
11.32847118;2.37254906
11.33255100;2.41176462
11.33255100;2.19607854
11.33664703;2.00000000
11.34082413;2.62745094
11.34082413;3.35294127
11.34483051;3.45098042
11.34890175;3.29411769
11.35306358;2.92156863
11.35306358;2.45098042
11.35715961;2.64705873
11.36120605;2.94117641
11.36530209;3.41176462
11.36530209;3.45098042
11.36926746;3.05882359
11.37333012;2.90196085
11.37760639;2.07843137
11.37760639;2.33333325
11.38167000;2.88235283
11.38572502;3.37254906
11.38975525;3.45098042
11.39383507;3.09803915
11.39794731;2.74509811
11.39794731;3.09803915
11.40219116;3.92156863
11.40608215;3.31372547
11.41021061;3.00000000
11.41021061;2.94117641
11.41438007;2.49019599
11.41855049;2.62745094
11.42267895;3.21568632
11.42267895;3.74509811
11.42664433;3.76470590
11.43079758;3.41176462
11.43492603;1.96078432
11.43904686;1.78431368
11.44317532;1.74509799
11.44317532;1.09803927
11.44716454;0.27450982
11.45124435;0.01960784
11.45533276;0.00000000
11.45533276;0.00000000
11.45935440;0.05882353
11.46357346;0.13725491
11.46757126;0.11764706
11.46757126;0.60784316
11.47170830;0.70588237
11.47582054;1.09803927
11.47990036;2.84313726
11.48404503;3.54901958
11.48810863;3.68627453
11.48810863;3.45098042
11.49230289;3.15686274
11.49629211;2.62745094
11.50040436;2.98039222
11.50040436;3.49019599
11.50459862;3.62745094
11.50865364;3.50980401
11.51274967;3.19607854
11.51274967;3.00000000
11.51670647;2.64705873
11.52089310;3.09803915
11.52494812;3.78431368
11.52909279;3.45098042
11.53307438;3.15686274
11.53307438;2.78431368
11.53733444;2.45098042
11.54135609;3.05882359
11.54554272;3.49019599
11.54554272;3.23529410
11.54967117;3.11764717
11.55366898;3.13725495
11.55774021;2.50980401
11.55774021;2.58823538
11.56191063;3.21568632
11.56604767;2.90196085
11.57002831;2.72549009
11.57410812;2.21568632
11.57821274;2.19607854
11.57821274;2.56862736
11.58235741;2.90196085
11.58635521;3.00000000
11.59059048;2.84313726
11.59059048;2.39215684
11.59457207;2.01960778
11.59870052;2.11764717
11.60282135;2.54901958
11.60282135;2.84313726
11.60689259;2.72549009
11.61103725;2.33333325
11.61515808;1.49019611
11.61924648;1.86274505
11.62330151;2.31372547
11.62330151;2.37254906
11.62741375;2.41176462
11.63153362;1.88235295
11.63561344;1.35294116
11.63561344;1.31372547
11.63959503;1.60784316
11.64370728;1.94117641
11.64783573;1.88235295
11.64783573;1.62745094
11.65196514;1.43137252
11.65615082;1.37254906
11.66008282;1.50980389
11.66422844;1.52941179
11.66839790;1.56862748
11.66839790;1.33333337
11.67255116;1.03921568
11.67665577;1.01960790
11.68064499;1.00000000
11.68064499;1.60784316
11.68477345;1.62745094
11.68891907;1.45098042
11.69304752;1.21568632
11.69304752;0.86274511
11.69702053;0.72549021
11.70121479;1.39215684
11.70531082;1.94117641
11.70531082;1.72549021
11.70939064;1.70588231
11.71339703;1.58823526
11.71339703;1.13725495
11.71777916;1.33333337
11.72170353;1.98039210
11.72577477;2.23529410
11.72577477;2.58823538
11.72969913;2.49019599
11.73386002;2.13725495
11.73802185;2.05882359
11.73802185;2.50980401
11.74207687;3.49019599
11.74617290;3.49019599
11.75028515;3.49019599
11.75028515;3.43137264
11.75441360;3.25490189
11.75853443;3.21568632
11.75853443;3.80392146
11.76263905;4.35294104
11.76666069;4.23529434
11.77074909;4.13725471
11.77074909;3.82352948
11.77482033;3.70588231
11.77901459;3.76470590
11.78307819;4.03921556
11.78307819;4.58823538
11.78708363;4.49019623
11.79122925;3.88235283
11.79535770;3.39215684
11.79535770;3.47058821
11.79941273;3.88235283
11.80367279;4.25490189
11.80367279;4.25490189
11.80767059;4.05882359
11.81184006;3.78431368
11.81585407;3.41176462
11.81585407;3.19607854
11.81989288;3.66666675
11.82407856;4.09803915
11.82817459;3.98039222
11.82817459;3.90196085
11.83223820;3.43137264
11.83630085;2.82352948
11.84042168;3.11764717
11.84042168;3.60784316
11.84457493;3.78431368
11.84863853;3.58823538
11.84863853;2.98039222
11.85283279;2.92156863
11.85670757;2.74509811
11.86081219;3.09803915
11.86081219;3.52941179
11.86501408;3.45098042
11.86922455;3.50980401
11.87329674;3.11764717
11.87329674;2.60784316
11.87727737;2.64705873
11.88143063;3.15686274
11.88563347;3.52941179
11.88563347;3.50980401
11.88964748;3.33333325
11.89355564;2.92156863
11.89776611;2.50980401
11.90183735;2.96078420
11.90595818;3.25490189
11.90595818;3.27450991
11.90995598;3.25490189
11.91406822;2.54901958
11.91823769;2.11764717
11.91823769;2.76470590
11.92239952;3.21568632
11.92638016;3.35294127
11.93064880;3.21568632
11.93064880;2.68627453
11.93466282;2.60784316
11.93877506;2.47058821
11.94290352;3.35294127
11.94688511;3.11764717
11.95104694;3.01960778
11.95104694;2.66666675
11.95520782;2.27450991
11.95930386;2.41176462
11.96331024;2.92156863
11.96331024;3.23529410
11.96752071;3.03921580
11.97151852;2.80392146
11.97564697;2.47058821
11.97564697;2.07843137
11.97966099;2.64705873
11.98368359;3.09803915
11.98783684;3.09803915
11.99198246;2.94117641
11.99617672;2.70588231
11.99617672;2.54901958
12.00014114;2.76470590
12.00428677;3.21568632
12.00839901;3.13725495
12.00839901;3.01960778
12.01245403;2.62745094
12.01655006;2.27450991
12.02062130;2.47058821
12.02062130;2.84313726
12.02469254;2.92156863
12.02885437;2.96078420
12.03295803;2.03921580
12.03695583;1.82352936
12.04112625;2.45098042
12.04112625;3.03921580
12.04521370;2.66666675
12.04942417;2.39215684
12.05341434;1.86274505
12.05341434;1.72549021
12.05769825;1.25490201
12.06172085;1.80392158
12.06584930;1.92156863
12.06584930;1.80392158
12.06983852;1.76470590
12.07395077;1.56862748
12.07815361;1.52941179
12.08216763;2.01960778
12.08625603;2.21568632
12.08625603;2.33333325
12.09042549;2.11764717
12.09438992;1.76470590
12.09851074;1.76470590
12.09851074;2.45098042
12.10278702;2.88235283
12.10670280;3.01960778
12.11082363;2.82352948
12.11082363;2.64705873
12.11491966;2.19607854
12.11916256;2.27450991
12.12308693;3.23529410
12.12710094;3.15686274
12.13128662;2.98039222
12.13128662;2.68627453
12.13554668;2.45098042
12.13952827;2.96078420
12.14356709;3.37254906
12.14356709;3.74509811
12.14767075;3.47058821
12.15171814;3.21568632
12.15583801;2.82352948
12.15583801;2.54901958
12.15980339;2.90196085
12.16398144;3.11764717
12.16810226;3.09803915
12.17229652;2.90196085
12.17641640;2.74509811
12.17641640;2.78431368
12.18039036;3.15686274
12.18452644;3.49019599
12.18864727;3.50980401
12.18864727;3.39215684
12.19276810;3.05882359
12.19677353;2.66666675
12.20085335;3.00000000
12.20085335;2.98039222
12.20492458;2.45098042
12.20909500;1.68627453
12.21319103;0.68627453
12.21319103;0.07843138
12.21725368;0.11764706
12.22132492;0.05882353
12.22132492;0.01960784
12.22552776;0.05882353
12.22964001;0.00000000
12.23364639;0.05882353
12.23364639;0.17647059
12.23779964;0.60784316
12.24192047;1.70588231
12.24604034;2.62745094
12.24604034;2.90196085
12.25001335;2.88235283
12.25415039;2.82352948
12.25827980;2.56862736
12.25827980;2.86274505
12.26237583;3.37254906
12.26645470;3.29411769
12.26645470;3.17647052
12.27060032;3.01960778
12.27464676;2.72549009
12.27875137;2.56862736
12.27875137;3.05882359
12.28282261;3.50980401
12.28681183;3.17647052
12.29097366;3.27450991
12.29097366;2.98039222
12.29514313;2.33333325
12.29929638;2.50980401
12.30341721;2.94117641
12.30341721;3.15686274
12.30740643;3.21568632
12.31167507;2.86274505
12.31167507;2.03921580
12.31564808;1.96078432
12.31979275;2.23529410
12.32373333;2.80392146
12.32373333;2.82352948
12.32792759;2.66666675
12.33196640;2.17647052
12.33611202;1.88235295
12.33611202;1.70588231
12.34006023;2.17647052
12.34417248;2.64705873
12.34833431;2.62745094
12.34833431;2.43137264
12.35244656;2.01960778
12.35661602;1.76470590
12.35661602;1.72549021
12.36063862;2.09803915
12.36476707;2.37254906
12.36892891;2.43137264
12.36892891;2.39215684
12.37304974;1.80392158
12.37700653;1.45098042
12.38114262;1.74509799
12.38114262;2.09803915
12.38529682;2.23529410
12.38935947;2.03921580
12.39352131;1.74509799
12.39352131;1.29411769
12.39760876;1.29411769
12.40157413;1.52941179
12.40569401;1.88235295
12.40970039;1.64705884
12.41381264;1.29411769
12.41381264;0.84313726
12.41801548;0.98039216
12.42216873;1.33333337
12.42628956;1.60784316
12.42628956;1.58823526
12.43026257;1.17647064
12.43439960;0.90196079
12.43851948;0.62745100
12.43851948;0.98039216
12.44266510;1.29411769
12.44667053;1.23529410
12.45074272;0.74509805
12.45482159;0.33333334
12.45900822;0.50980395
12.45900822;0.90196079
12.46294022;1.37254906
12.46707726;1.17647064
12.47119808;1.07843137
12.47119808;1.05882359
12.47531033;0.78431374
12.47947979;0.94117647
12.48366547;1.47058821
12.48366547;1.92156863
12.48765564;1.88235295
12.49177647;1.72549021
12.49591255;1.37254906
12.49991035;1.82352936
12.50402260;2.52941179
12.50402260;2.70588231
12.50814342;2.60784316
12.51224804;2.62745094
12.51630306;2.47058821
12.51630306;2.66666675
12.52035809;3.35294127
12.52447891;3.72549009
12.52859116;3.98039222
12.52859116;3.74509811
12.53268719;3.60784316
12.53669262;3.33333325
12.54084587;4.13725471
12.54504013;4.21568632
12.54914474;4.33333349
12.54914474;4.03921556
12.55309296;3.60784316
12.55726242;3.33333325
12.56139183;3.68627453
12.56139183;3.90196085
12.56553650;3.90196085
12.56964111;3.94117641
12.57358170;3.70588231
12.57358170;3.17647052
12.57775116;3.25490189
12.58178997;3.96078420
12.58598423;3.62745094
12.58999825;3.74509811
12.59414291;3.35294127
12.59414291;3.01960778
12.59819794;3.09803915
12.60229397;3.52941179
12.60650539;3.76470590
12.60650539;3.66666675
12.61063385;3.47058821
12.61465645;3.11764717
12.61880970;2.84313726
12.61880970;2.96078420
12.62291336;3.68627453
12.62689495;3.52941179
12.63100719;3.27450991
12.63514423;2.90196085
12.63921547;2.76470590
12.63921547;3.35294127
12.64314747;3.23529410
12.64738274;3.45098042
12.65156937;3.23529410
12.65156937;2.98039222
12.65556717;2.76470590
12.65969563;3.00000000
12.66376686;3.31372547
12.66376686;3.39215684
12.66784668;3.29411769
12.67201614;3.09803915
12.67611217;2.72549009
12.67611217;2.52941179
12.68015099;3.05882359
12.68426323;3.35294127
12.68426323;3.23529410
12.68840885;3.31372547
12.69252110;2.96078420
12.69664192;2.58823538
12.69664192;2.80392146
12.70060635;3.27450991
12.70471859;3.47058821
12.70885563;3.39215684
12.70885563;3.15686274
12.71293545;2.60784316
12.71694946;2.23529410
12.72106171;2.76470590
12.72106171;3.29411769
12.72518253;3.41176462
12.72934437;3.43137264
12.72934437;3.17647052
12.73339081;2.60784316
12.73766708;2.43137264
12.74164009;2.82352948
12.74164009;3.45098042
12.74578571;3.29411769
12.74977493;3.19607854
12.75390339;2.78431368
12.75390339;2.39215684
12.75801563;2.56862736
12.76210403;3.09803915
12.76620007;3.33333325
12.76620007;3.21568632
12.77023888;2.96078420
12.77431774;2.58823538
12.77431774;2.17647052
12.77849579;2.66666675
12.78255939;3.35294127
12.78669643;3.07843137
12.78669643;2.88235283
12.79071808;2.78431368
12.79491234;2.43137264
12.79901695;2.17647052
12.79901695;2.56862736
12.80295753;2.92156863
12.80713558;3.00000000
12.81125546;2.88235283
12.81125546;2.54901958
12.81538486;2.21568632
12.81947231;2.37254906
12.81947231;2.92156863
12.82369137;3.07843137
12.82769680;3.13725495
12.83181763;3.07843137
12.83181763;2.47058821
12.83587265;2.15686274
12.83988667;2.52941179
12.84399891;2.96078420
12.84399891;3.11764717
12.84811974;2.96078420
12.85228920;2.54901958
12.85630322;2.25490189
12.85630322;2.37254906
12.86034203;2.58823538
12.86456108;2.96078420
12.86859131;2.60784316
12.87278557;2.23529410
12.87691498;1.98039210
12.87691498;2.03921580
12.88087940;2.58823538
12.88500881;2.41176462
12.88911247;2.33333325
12.88911247;2.35294127
12.89306927;1.76470590
12.89720631;1.39215684
12.90131855;1.70588231
12.90131855;2.39215684
12.90544701;2.09803915
12.90956020;2.45098042
12.91363907;1.62745094
12.91776848;1.92156863
12.92190552;2.41176462
12.92190552;2.78431368
12.92603397;2.70588231
12.93001556;2.62745094
12.93410301;2.49019599
12.93410301;2.00000000
12.93825626;2.45098042
12.94240189;3.03921580
12.94653893;3.29411769
12.94653893;3.39215684
12.95069218;3.29411769
12.95476341;3.00000000
12.95878601;3.05882359
12.96287346;3.35294127
12.96702671;3.41176462
12.96702671;3.35294127
12.97099972;2.86274505
12.97512054;2.70588231
12.97940445;2.64705873
12.97940445;3.21568632
12.98319817;3.19607854
12.98734283;3.33333325
12.99164391;3.19607854
12.99164391;2.74509811
12.99563313;2.47058821
12.99976158;2.66666675
13.00378418;3.33333325
13.00790501;3.29411769
13.01196003;3.09803915
13.01196003;2.52941179
13.01607227;2.33333325
13.02006149;2.64705873
13.02423954;3.41176462
13.02423954;3.47058821
13.02832699;3.52941179
13.03243160;3.25490189
13.03657722;2.39215684
13.03657722;2.03921580
13.04055786;1.92156863
13.04471111;1.68627453
13.04888153;0.15686275
13.05295277;0.00000000
13.05715466;0.11764706
13.05715466;0.07843138
13.06112003;0.19607843
13.06527328;0.17647059
13.06934452;0.25490198
13.06934452;0.21568628
13.07340813;0.78431374
13.07770061;1.47058821
13.08167362;2.49019599
13.08167362;3.33333325
13.08571243;3.19607854
13.08988190;3.68627453
13.09387207;2.74509811
13.09799194;2.58823538
13.10224342;2.86274505
13.10224342;3.27450991
13.10619259;3.25490189
13.11019039;2.98039222
13.11434364;2.60784316
13.11434364;2.15686274
13.11846447;2.50980401
13.12266636;3.09803915
13.12677860;3.21568632
13.12677860;2.82352948
13.13075161;2.56862736
13.13489723;2.45098042
13.13900089;2.58823538
13.14312172;2.94117641
13.14713573;3.05882359
13.14713573;2.90196085
13.15119076;2.45098042
13.15535259;1.94117641
13.15944004;2.13725495
13.15944004;2.64705873
13.16355324;3.05882359
13.16764832;2.92156863
13.17176914;2.76470590
13.17176914;2.62745094
13.17590618;2.01960778
13.18003464;2.27450991
13.18408966;2.68627453
13.18408966;2.72549009
13.18829250;2.68627453
13.19231510;2.27450991
13.19231510;1.96078432
13.19645977;1.66666663
13.20040894;2.23529410
13.20465183;2.70588231
13.20465183;2.54901958
13.20868206;2.60784316
13.21281147;2.21568632
13.21693230;1.78431368
13.21693230;1.82352936
13.22087193;2.27450991
13.22499275;2.49019599
13.22920322;2.45098042
13.22920322;2.19607854
13.23331547;1.78431368
13.23738766;1.27450979
13.23738766;1.52941179
13.24140167;2.03921580
13.24544811;2.13725495
13.24962616;1.98039210
13.24962616;1.64705884
13.25364876;1.21568632
13.25776863;0.66666669
13.26184845;0.96078432
13.26184845;1.74509799
13.26601028;1.47058821
13.27011395;1.29411769
13.27404690;1.25490201
13.27404690;0.80392158
13.27820015;0.68627453
13.28230381;1.09803927
13.28230381;1.21568632
13.28644085;1.19607842
13.29058647;0.90196079
13.29462433;0.50980395
13.29462433;0.15686275
13.29876137;0.74509805
13.30279255;1.17647064
13.30702782;1.25490201
13.30702782;1.11764705
13.31102562;0.96078432
13.31512928;0.68627453
13.31919289;0.66666669
13.31919289;1.09803927
13.32339478;1.68627453
13.32736015;1.80392158
13.32736015;1.80392158
13.33138180;1.72549021
13.33560085;1.60784316
13.33967304;1.96078432
13.33967304;2.62745094
13.34365368;2.96078420
13.34780693;3.13725495
13.35191917;3.05882359
13.35191917;2.90196085
13.35610580;2.76470590
13.36013603;3.21568632
13.36424065;3.92156863
13.36424065;4.05882359
13.36838531;4.21568632
13.37253094;3.90196085
13.37665081;3.66666675
13.38061619;4.15686274
13.38474464;4.62745094
13.38474464;4.47058821
13.38885689;4.35294104
13.39292049;4.13725471
13.39707375;3.60784316
13.39707375;3.80392146
13.40105534;4.19607830
13.40526581;4.64705896
13.40930462;4.45098019
13.40930462;4.05882359
13.41329384;3.94117641
13.41759491;3.62745094
13.42163372;4.35294104
13.42577076;4.11764717
13.42989922;4.05882359
13.42989922;3.64705873
13.43387222;2.90196085
13.43805027;3.05882359
13.44213009;3.62745094
13.44213009;3.94117641
13.44627476;3.90196085
13.45018291;3.72549009
13.45434380;3.17647052
13.45434380;2.78431368
13.45846462;2.92156863
13.46254444;3.45098042
13.46673012;3.62745094
13.47067928;3.41176462
13.47488117;3.13725495
13.47488117;2.70588231
13.47896099;3.11764717
13.48314762;3.50980401
13.48728466;3.29411769
13.48728466;3.29411769
13.49124050;3.00000000
13.49538612;2.56862736
13.49950695;2.54901958
13.49950695;3.11764717
13.50365162;3.47058821
13.50764942;3.37254906
13.51168823;2.76470590
13.51584148;2.37254906
13.51996231;2.54901958
13.51996231;3.03921580
13.52400875;3.13725495
13.52806377;3.17647052
13.53225040;2.92156863
13.53225040;2.64705873
13.53631306;2.50980401
13.54033566;2.62745094
13.54465294;3.15686274
13.54465294;3.11764717
13.54862595;2.96078420
13.55271339;2.84313726
13.55690002;2.33333325
13.56086445;2.92156863
13.56499386;3.25490189
13.56499386;3.21568632
13.56908131;3.17647052
13.57326698;2.60784316
13.57731438;2.17647052
13.57731438;2.60784316
13.58143520;2.90196085
13.58567047;3.15686274
13.58965969;3.05882359
13.58965969;2.76470590
13.59362411;2.41176462
13.59780216;2.21568632
13.60187435;3.23529410
13.60593700;3.13725495
13.61004162;3.31372547
13.61004162;2.92156863
13.61404705;2.45098042
13.61820889;2.54901958
13.62238693;2.98039222
13.62238693;3.27450991
13.62652397;3.17647052
13.63064384;3.33333325
13.63461781;2.84313726
13.63461781;2.31372547
13.63870525;2.68627453
13.64276028;3.07843137
13.64693832;3.09803915
13.65091896;2.98039222
13.65504837;2.49019599
13.65504837;2.19607854
13.65917683;2.66666675
13.66333008;3.33333325
13.66732788;3.05882359
13.66732788;3.07843137
13.67162037;2.66666675
13.67561054;2.15686274
13.67974663;2.45098042
13.67974663;2.98039222
13.68374443;3.50980401
13.68795586;3.25490189
13.69199371;3.21568632
13.69199371;2.62745094
13.69615555;2.15686274
13.70030880;2.50980401
13.70030880;2.94117641
13.70438004;3.00000000
13.70842743;2.90196085
13.71252346;2.54901958
13.71252346;1.98039210
13.71664429;1.84313726
13.72068214;2.21568632
13.72473717;2.68627453
13.72473717;2.76470590
13.72893143;2.52941179
13.73296261;2.11764717
13.73708248;1.62745094
13.73708248;1.47058821
13.74104786;2.37254906
13.74520969;2.74509811
13.74520969;2.50980401
13.74939537;2.47058821
13.75352383;2.05882359
13.75764465;1.72549021
13.75764465;1.94117641
13.76166725;2.58823538
13.76570606;2.66666675
13.76988411;2.74509811
13.76988411;2.60784316
13.77387333;2.39215684
13.77793598;2.31372547
13.78204918;2.66666675
13.78204918;3.31372547
13.78618526;3.27450991
13.79028988;3.41176462
13.79028988;3.21568632
13.79436970;2.78431368
13.79850674;2.84313726
13.80257797;3.29411769
13.80257797;3.64705873
13.80677223;3.50980401
13.81074524;3.29411769
13.81487370;3.09803915
13.81487370;2.74509811
13.81901073;3.01960778
13.82314777;3.39215684
13.82731819;3.60784316
13.82731819;3.52941179
13.83130741;3.17647052
13.83565712;2.72549009
13.83565712;2.62745094
13.83954811;3.05882359
13.84376717;3.64705873
13.84764194;3.52941179
13.84764194;3.27450991
13.85173798;3.00000000
13.85585022;2.54901958
13.85993004;2.66666675
13.85993004;3.07843137
13.86392784;3.33333325
13.86804008;3.39215684
13.87228394;3.33333325
13.87228394;3.07843137
13.87639618;2.74509811
13.88052464;3.27450991
13.88464546;2.78431368
13.88861847;2.15686274
13.89268208;1.47058821
13.89268208;0.45098040
13.89682674;0.09803922
13.90083313;0.17647059
13.90494537;0.17647059
13.90494537;0.11764706
13.90904903;0.05882353
13.91325188;0.19607843
13.91733170;0.17647059
13.91733170;0.64705884
13.92141914;1.92156863
13.92552376;2.47058821
13.92965221;3.25490189
13.93364143;2.98039222
13.93781185;2.72549009
13.93781185;3.01960778
13.94195652;3.41176462
13.94607735;3.39215684
13.95014000;3.01960778
13.95014000;2.56862736
13.95416260;2.25490189
13.95823383;2.05882359
13.96235466;2.74509811
13.96235466;2.90196085
13.96664715;3.01960778
13.97067738;2.90196085
13.97467518;2.39215684
13.97881222;2.39215684
13.98293304;2.90196085
13.98293304;3.03921580
13.98691463;2.90196085
13.99098587;2.52941179
13.99514771;2.39215684
13.99514771;1.98039210
13.99925995;2.37254906
14.00334740;2.74509811
14.00752544;2.84313726
14.00752544;2.54901958
14.01165390;2.49019599
14.01559448;2.05882359
14.01969051;2.35294127
14.02370453;2.64705873
14.02784157;2.45098042
14.02784157;2.31372547
14.03195381;2.07843137
14.03604126;1.62745094
14.04018688;1.82352936
14.04018688;2.66666675
14.04415226;2.52941179
14.04837036;2.45098042
14.05245018;2.15686274
14.05245018;1.74509799
14.05665302;1.52941179
14.06065083;1.84313726
14.06474686;2.37254906
14.06894875;2.25490189
14.07300377;1.82352936
14.07300377;1.41176474
14.07695293;1.43137252
14.08104038;1.74509799
14.08520985;2.07843137
14.08520985;1.86274505
14.08929825;1.78431368
14.09348392;1.45098042
14.09754753;0.86274511
14.09754753;1.05882359
14.10154533;1.45098042
14.10570621;1.17647064
14.10986805;1.23529410
14.11385727;0.90196079
14.11797810;0.60784316
14.11797810;0.94117647
14.12213135;1.23529410
14.12624359;1.21568632
14.13036442;1.05882359
14.13036442;0.74509805
14.13434601;0.58823532
14.13851547;0.50980395
14.14256191;0.98039216
14.14256191;1.33333337
14.14672375;1.05882359
14.15067196;0.90196079
14.15487480;0.39215687
14.15892220;0.54901963
14.16309929;1.27450979
14.16309929;1.64705884
14.16704845;1.72549021
14.17123413;1.68627453
14.17535496;1.49019611
14.17535496;1.23529410
14.17949200;1.84313726
14.18362904;2.50980401
14.18762684;2.68627453
14.18762684;2.94117641
14.19172287;2.96078420
14.19586754;2.43137264
14.19993877;2.64705873
14.19993877;3.27450991
14.20393658;3.74509811
14.20801640;3.76470590
14.20801640;3.74509811
14.21220207;3.49019599
14.21629810;3.29411769
14.22050953;3.62745094
14.22050953;4.19607830
14.22455597;4.37254906
14.22862720;4.41176462
14.23269844;4.33333349
14.23269844;4.05882359
14.23689365;3.56862736
14.24087429;3.96078420
14.24499512;4.27450991
14.24499512;4.15686274
14.24912357;4.37254906
14.25326920;4.07843161
14.25326920;3.60784316
14.25726700;3.35294127
14.26137066;3.80392146
14.26559830;4.17647076
14.26559830;4.09803915
14.26955509;3.72549009
14.27374077;3.45098042
14.27767277;2.84313726
14.27767277;3.01960778
14.28185081;3.58823538
14.28592205;4.21568632
14.29012489;3.84313726
14.29012489;3.45098042
14.29407310;3.25490189
14.29823494;2.88235283
14.29823494;3.35294127
14.30235577;3.49019599
14.30651665;3.29411769
14.31063747;3.05882359
14.31063747;3.03921580
14.31461048;2.54901958
14.31875610;2.50980401
14.32286835;3.05882359
14.32286835;3.31372547
14.32703018;3.25490189
14.33105183;3.05882359
14.33514023;2.72549009
14.33514023;2.27450991
14.33922768;2.47058821
14.34338093;3.13725495
14.34735394;3.33333325
14.35167122;2.82352948
14.35569382;2.54901958
14.35569382;2.25490189
14.35974884;2.80392146
14.36381149;3.37254906
14.36778450;3.21568632
14.36778450;3.11764717
14.37196255;2.60784316
14.37611580;2.23529410
14.38024521;2.29411769
14.38024521;2.76470590
14.38424301;2.94117641
14.38834667;2.80392146
14.39243507;2.09803915
14.39654732;2.13725495
14.40065956;2.37254906
14.40065956;2.84313726
14.40473080;2.98039222
14.40878582;2.90196085
14.41300488;2.66666675
14.41300488;2.09803915
14.41707611;2.05882359
14.42111492;2.54901958
14.42524338;3.15686274
14.42524338;2.98039222
14.42938900;2.88235283
14.43350983;2.47058821
14.43763828;2.15686274
14.44161987;2.50980401
14.44576454;3.00000000
14.44576454;2.82352948
14.44989300;2.80392146
14.45390701;2.45098042
14.45800304;1.90196073
14.45800304;2.43137264
14.46209908;3.07843137
14.46623611;2.98039222
14.47035694;2.90196085
14.47035694;2.74509811
14.47434616;2.23529410
14.47860622;2.15686274
14.48258781;3.11764717
14.48666763;2.98039222
14.49079609;2.86274505
14.49079609;2.62745094
14.49477768;2.31372547
14.49901295;2.50980401
14.50308418;3.09803915
14.50308418;3.17647052
14.50713921;3.15686274
14.51123524;2.90196085
14.51533890;2.47058821
14.51533890;2.15686274
14.51949215;2.78431368
14.52357197;3.03921580
14.52755356;3.00000000
14.53166580;2.60784316
14.53588486;2.35294127
14.53588486;2.45098042
14.53990746;2.86274505
14.54399490;3.43137264
14.54804993;2.98039222
14.54804993;3.21568632
14.55237484;2.84313726
14.55638981;2.49019599
14.56045246;3.00000000
14.56045246;3.37254906
14.56461430;3.31372547
14.56861973;3.25490189
14.57274914;2.78431368
14.57691002;2.82352948
14.58103085;2.76470590
14.58103085;3.35294127
14.58505344;3.23529410
14.58908367;3.15686274
14.59326172;2.84313726
14.59326172;2.25490189
14.59722614;2.35294127
14.60142040;2.80392146
14.60563946;3.09803915
14.60563946;3.21568632
14.60954762;3.09803915
14.61374950;2.64705873
14.61773109;2.56862736
14.62186813;2.96078420
14.62598896;3.27450991
14.62598896;3.03921580
14.63013363;2.74509811
14.63411522;2.09803915
14.63820267;1.90196073
14.63820267;2.25490189
14.64230728;2.60784316
14.64641953;2.43137264
14.65054035;2.17647052
14.65054035;1.84313726
14.65456200;1.50980389
14.65865040;1.70588231
14.66278744;2.25490189
14.66278744;2.56862736
14.66694832;2.60784316
14.67112637;2.45098042
14.67112637;2.49019599
14.67510796;1.88235295
14.67923641;2.09803915
14.68338203;2.52941179
14.68338203;2.60784316
14.68737125;2.64705873
14.69164753;2.41176462
14.69562054;2.25490189
14.69562054;2.17647052
14.69970798;2.80392146
14.70367336;3.29411769
14.70776081;3.39215684
14.70776081;3.37254906
14.71190643;2.90196085
14.71608448;2.60784316
14.71608448;2.66666675
14.72015572;3.17647052
14.72415352;3.35294127
14.72831535;3.33333325
14.72831535;3.05882359
14.73248482;2.84313726
14.73660564;2.21568632
14.74075890;2.62745094
14.74075890;3.11764717
14.74473190;3.23529410
14.74886894;3.21568632
14.75298882;3.00000000
14.75298882;2.58823538
14.75713444;2.45098042
14.76113987;2.82352948
14.76113987;3.15686274
14.76517868;3.17647052
14.76929092;3.15686274
14.77346897;2.92156863
14.77346897;2.60784316
14.77755737;2.60784316
14.78152180;3.27450991
14.78569126;3.70588231
14.78569126;3.56862736
14.78982067;3.19607854
14.79385090;2.56862736
14.79798794;1.76470590
14.79798794;1.64705884
14.80211639;1.52941179
14.80623722;1.07843137
14.80623722;0.19607843
14.81038189;0.03921569
14.81437206;0.25490198
14.81863213;0.07843138
14.81863213;0.07843138
14.82261276;0.17647059
14.82670116;0.15686275
14.83085442;0.21568628
14.83085442;0.82352942
14.83483505;1.07843137
14.83893108;1.98039210
14.84303570;2.74509811
14.84303570;3.07843137
14.84715652;3.31372547
14.85114574;3.27450991
14.85534000;2.50980401
14.85948563;2.70588231
14.86361408;3.15686274
14.86361408;3.27450991
14.86762810;3.39215684
14.87173176;3.01960778
14.87587738;2.70588231
14.87587738;2.41176462
14.88000584;2.92156863
14.88400364;3.33333325
14.88806725;3.23529410
14.88806725;3.13725495
14.89217091;2.86274505
14.89632416;2.33333325
14.90043736;2.86274505
14.90454960;2.88235283
14.90852261;2.78431368
14.90852261;2.70588231
14.91272545;2.39215684
14.91682053;2.03921580
14.92100716;2.66666675
14.92100716;2.74509811
14.92495537;2.82352948
14.92910862;2.74509811
14.93325424;2.45098042
14.93325424;2.05882359
14.93738270;1.80392158
14.94135571;2.37254906
14.94563198;2.31372547
14.94962978;2.41176462
14.95370102;2.15686274
14.95370102;1.74509799
14.95765781;1.86274505
14.96180344;2.33333325
14.96591568;2.54901958
14.96591568;2.43137264
14.97002029;2.17647052
14.97403431;1.78431368
14.97818756;1.41176474
14.97818756;1.70588231
14.98235703;2.00000000
14.98643684;2.07843137
14.99061489;1.70588231
14.99460411;1.35294116
14.99872494;1.05882359
14.99872494;1.27450979
15.00281239;1.88235295
15.00700665;1.78431368
15.01113510;1.54901958
15.01113510;1.27450979
15.01516628;0.78431374
15.01926231;0.98039216
15.02338219;1.35294116
15.02338219;1.27450979
15.02741337;1.23529410
15.03163147;1.07843137
15.03576851;0.33333334
15.03972530;0.66666669
15.04392815;1.17647064
15.04392815;1.27450979
15.04779434;0.88235295
15.05190754;0.62745100
15.05605221;0.33333334
15.05605221;0.43137255
15.06018925;0.82352942
15.06425285;1.15686274
15.06837273;1.19607842
15.06837273;1.03921568
15.07250977;0.72549021
15.07658100;0.37254903
15.08070183;1.37254906
15.08466721;1.78431368
15.08881187;1.84313726
15.08881187;1.80392158
15.09292412;1.72549021
15.09711838;1.49019611
15.10104275;1.96078432
15.10104275;2.45098042
15.10521221;2.62745094
15.10931683;2.78431368
15.11350250;2.62745094
15.11350250;2.45098042
15.11763191;2.43137264
15.12166214;3.09803915
15.12575817;3.52941179
15.12987900;3.52941179
15.13400745;3.33333325
15.13400745;2.98039222
15.13814449;3.21568632
15.14214993;3.82352948
15.14622974;3.86274505
15.14622974;3.98039222
15.15034199;3.45098042
15.15436459;3.72549009
15.15873051;3.27450991
15.15873051;3.41176462
15.16262150;4.00000000
15.16672611;3.80392146
15.17076492;3.70588231
15.17076492;3.21568632
15.17477036;2.90196085
15.17899799;2.66666675
15.17899799;3.33333325
15.18306923;3.74509811
15.18725491;3.58823538
15.19122028;3.29411769
15.19122028;2.98039222
15.19533253;2.47058821
15.19946098;2.84313726
15.20356560;3.45098042
15.20356560;3.41176462
15.20749760;3.58823538
15.21166706;3.17647052
15.21577168;2.66666675
15.21577168;2.45098042
15.21993351;3.09803915
15.22402954;3.33333325
15.22402954;3.25490189
15.22811699;3.33333325
15.23220444;2.94117641
15.23630047;2.58823538
15.23630047;2.52941179
15.24048710;2.98039222
15.24460793;3.25490189
15.24859715;3.09803915
15.24859715;3.00000000
15.25268459;2.58823538
15.25687885;2.19607854
15.26100826;2.58823538
15.26100826;2.94117641
15.26503849;3.17647052
15.26915073;3.13725495
15.26915073;2.78431368
15.27320576;2.50980401
15.27740860;2.37254906
15.28138161;2.84313726
15.28138161;3.33333325
15.28570652;3.23529410
15.28958988;3.19607854
15.29376793;2.82352948
15.29376793;2.29411769
15.29766750;2.29411769
15.30177116;2.84313726
15.30589962;3.19607854
15.30589962;3.17647052
15.31016827;2.78431368
15.31422329;2.50980401
15.31422329;2.13725495
15.31820488;2.45098042
15.32234097;2.92156863
15.32641315;2.90196085
15.32641315;2.86274505
15.33052540;2.74509811
15.33451462;2.35294127
15.33866024;2.17647052
15.33866024;2.72549009
15.34278870;3.11764717
15.34688473;3.17647052
15.35103798;3.03921580
15.35103798;2.66666675
15.35512543;2.19607854
15.35918903;2.49019599
15.36338329;2.80392146
15.36750412;2.88235283
15.37164879;2.74509811
15.37164879;2.54901958
15.37558937;2.13725495
15.37973499;2.56862736
15.38385487;3.01960778
15.38385487;3.00000000
15.38809872;2.90196085
15.39201450;2.72549009
15.39609432;2.37254906
15.39609432;2.17647052
15.40017319;2.76470590
15.40429401;3.03921580
15.40828323;2.98039222
15.41242027;2.60784316
15.41652489;1.96078432
15.41652489;2.33333325
15.42066193;2.88235283
15.42465115;2.94117641
15.42880440;2.94117641
15.42880440;2.72549009
15.43298244;2.33333325
15.43711090;1.98039210
15.44122410;2.31372547
15.44122410;2.86274505
15.44520473;2.98039222
15.44934177;2.92156863
15.45343018;2.39215684
15.45750904;2.25490189
15.46155643;2.56862736
15.46155643;2.88235283
15.46565247;2.90196085
15.46981335;2.88235283
15.47390938;2.68627453
15.47390938;2.21568632
15.47789955;2.45098042
15.48206043;2.84313726
15.48622227;3.01960778
15.48622227;3.05882359
15.49038410;2.90196085
15.49437332;2.31372547
15.49862480;2.52941179
15.50257397;2.92156863
15.50673485;2.96078420
15.50673485;2.94117641
15.51075745;2.52941179
15.51481247;2.03921580
15.51894951;2.19607854
15.51894951;2.50980401
15.52306175;3.00000000
15.52714920;2.90196085
15.53129482;2.86274505
15.53129482;2.49019599
15.53527641;2.25490189
15.53941345;2.31372547
15.54350090;3.09803915
15.54754734;3.00000000
15.55173397;2.78431368
15.55173397;2.41176462
15.55586243;2.09803915
15.55992603;2.33333325
15.56411171;2.88235283
15.56411171;2.86274505
15.56807709;2.82352948
15.57223034;2.49019599
15.57629299;2.11764717
15.57629299;2.29411769
15.58043003;2.52941179
15.58452606;3.19607854
15.58860588;2.80392146
15.59266090;2.60784316
15.59677315;2.05882359
15.59677315;2.33333325
15.60078716;2.94117641
15.60494900;3.07843137
15.60906124;2.88235283
15.60906124;2.68627453
15.61325550;2.09803915
15.61737633;1.74509799
15.62136555;1.96078432
15.62136555;2.45098042
15.62563419;2.25490189
15.62963104;2.33333325
15.63375187;1.66666663
15.63773346;1.72549021
15.64182949;2.21568632
15.64182949;2.47058821
15.64591694;2.49019599
15.65008736;2.43137264
15.65416622;2.11764717
15.65416622;1.58823526
15.65815639;1.72549021
15.66227627;2.35294127
15.66639709;2.66666675
15.66639709;2.82352948
15.67056656;2.64705873
15.67461395;2.39215684
15.67872620;2.23529410
15.67872620;2.62745094
15.68285465;3.31372547
15.68700027;3.37254906
15.68700027;3.37254906
15.69099808;3.11764717
15.69510174;2.54901958
15.69924736;2.60784316
15.69924736;3.03921580
15.70333481;3.31372547
15.70741463;3.37254906
15.71155167;3.07843137
15.71155167;2.88235283
15.71552467;2.72549009
15.71966934;2.60784316
15.72377396;3.17647052
15.72377396;3.33333325
15.72786140;3.37254906
15.73187542;3.31372547
15.73187542;2.92156863
15.73610306;2.60784316
15.74024773;2.94117641
15.74437714;3.33333325
15.74437714;3.37254906
15.74834156;3.25490189
15.75239658;2.96078420
15.75659943;2.66666675
15.75659943;2.49019599
15.76072788;3.00000000
15.76474190;3.60784316
15.76888752;3.62745094
15.76888752;3.58823538
15.77304077;2.96078420
15.77712059;2.23529410
15.77712059;2.00000000
15.78111839;2.13725495
15.78521442;1.62745094
15.78933430;0.54901963
15.78933430;0.09803922
15.79347134;0.03921569
15.79751873;0.03921569
15.80152416;0.29411766
15.80152416;0.11764706
15.80567741;0.19607843
15.80980587;0.17647059
15.81397629;0.39215687
15.81397629;0.68627453
15.81798172;1.39215684
15.82210255;2.47058821
15.82619858;3.33333325
15.83034325;3.43137264
15.83448029;3.27450991
15.83448029;2.74509811
15.83865833;2.90196085
15.84254169;3.43137264
15.84664536;3.60784316
15.84664536;3.50980401
15.85087299;3.56862736
15.85479641;3.07843137
15.85893345;2.82352948
15.85893345;3.21568632
15.86312008;3.74509811
15.86724091;3.66666675
15.87123013;3.23529410
15.87536716;2.74509811
15.87947083;2.82352948
15.87947083;3.31372547
15.88362408;3.54901958
15.88760567;3.49019599
15.89179230;3.27450991
15.89179230;2.88235283
15.89590454;2.54901958
15.89999199;2.72549009
15.90410423;3.27450991
15.90410423;3.25490189
15.90809441;3.25490189
15.91220665;3.07843137
15.91634369;2.37254906
15.92048073;2.66666675
15.92452717;2.78431368
15.92452717;3.01960778
15.92852497;2.80392146
15.93267822;2.35294127
15.93681526;2.00000000
15.93681526;2.03921580
15.94099331;2.86274505
15.94496632;2.84313726
15.94908714;2.72549009
15.94908714;2.47058821
15.95320702;2.01960778
15.95727825;1.70588231
15.96129322;2.45098042
15.96552849;2.62745094
15.96960735;2.25490189
15.96960735;1.98039210
15.97365475;1.64705884
15.97763538;1.43137252
15.98181343;1.78431368
15.98181343;2.17647052
15.98595905;1.92156863
15.99012089;1.68627453
15.99424934;1.58823526
15.99424934;1.13725495
15.99822235;1.23529410
16.00241661;1.56862748
16.00647163;1.66666663
16.01061630;1.41176474
16.01477051;1.03921568
16.01477051;0.70588237
16.01875114;0.98039216
16.02282333;1.35294116
16.02691078;1.35294116
16.02691078;1.37254906
16.03099060;1.15686274
16.03507805;0.80392158
16.03920746;0.68627453
16.03920746;1.21568632
16.04333496;1.52941179
16.04738235;1.52941179
16.05151939;1.05882359
16.05552483;0.88235295
16.05965424;1.09803927
16.05965424;1.56862748
16.06384087;2.00000000
16.06782913;2.25490189
16.07195091;2.07843137
16.07195091;1.78431368
16.07604599;1.84313726
16.08015823;2.35294127
16.08428764;2.88235283
16.08428764;3.29411769
16.08829308;3.45098042
16.09262657;3.19607854
16.09651756;3.19607854
16.10064697;4.23529434
16.10477638;4.31372547
16.10477638;4.45098019
16.10880661;4.37254906
16.11296844;4.39215708
16.11709595;3.98039222
16.11709595;4.11764717
16.12124252;4.41176462
16.12526321;4.70588255
16.12942505;4.70588255
16.12942505;4.50980377
16.13354683;4.11764717
16.13767433;3.84313726
16.14167213;4.70588255
16.14576912;4.60784292
16.14990616;4.27450991
16.14990616;4.19607830
16.15398598;3.82352948
16.15799141;3.68627453
16.16207886;4.13725471
16.16207886;4.52941179
16.16619873;4.37254906
16.17041779;4.21568632
16.17448997;4.01960802
16.17448997;3.47058821
16.17857742;3.60784316
16.18258286;3.90196085
16.18665504;4.21568632
16.18665504;4.03921556
16.19077492;3.88235283
16.19499397;3.37254906
16.19499397;3.05882359
16.19897461;3.39215684
16.20310402;3.80392146
16.20713425;3.84313726
16.20713425;3.96078420
16.21115685;3.56862736
16.21530151;3.13725495
16.21954536;2.94117641
16.21954536;3.45098042
16.22351837;3.80392146
16.22772217;3.70588231
16.23167801;3.29411769
16.23167801;2.90196085
16.23584747;2.62745094
16.23992729;2.72549009
16.23992729;3.37254906
16.24408913;3.54901958
16.24808693;3.33333325
16.25221443;3.09803915
16.25221443;2.70588231
16.25633621;2.41176462
16.26046371;2.96078420
16.26454353;3.21568632
16.26454353;3.21568632
16.26857567;3.13725495
16.27263832;2.78431368
16.27676582;2.66666675
16.27676582;2.25490189
16.28090286;2.76470590
16.28488541;3.13725495
16.28488541;3.07843137
16.28902245;2.94117641
16.29314232;2.45098042
16.29733658;2.07843137
16.29733658;2.35294127
16.30134201;2.86274505
16.30561829;2.92156863
16.30959129;3.03921580
16.30959129;2.66666675
16.31373787;2.31372547
16.31772614;2.37254906
16.32185555;2.49019599
16.32185555;2.84313726
16.32596779;2.90196085
16.33003998;2.92156863
16.33410263;2.05882359
16.33817482;2.21568632
16.34227753;2.78431368
16.34227753;3.00000000
16.34647179;2.92156863
16.35051918;2.72549009
16.35464859;2.39215684
16.35464859;1.90196073
16.35867119;2.23529410
16.36284828;2.88235283
16.36699295;2.94117641
16.36699295;3.00000000
16.37111473;2.76470590
16.37510300;2.41176462
16.37922478;2.54901958
16.38336182;2.94117641
16.38748932;2.76470590
16.38748932;2.82352948
16.39154434;2.47058821
16.39549255;2.13725495
16.39970398;2.25490189
16.39970398;2.52941179
16.40379143;3.27450991
16.40788841;2.74509811
16.41188622;2.52941179
16.41188622;2.15686274
16.41600609;2.01960778
16.42022514;2.56862736
16.42436218;3.15686274
16.42833519;2.66666675
16.43261147;2.50980401
16.43261147;2.13725495
16.43661690;2.03921580
16.44073868;2.52941179
16.44486618;3.07843137
16.44486618;2.96078420
16.44885635;2.68627453
16.45288658;2.43137264
16.45699120;1.96078432
16.45699120;2.07843137
16.46103668;2.41176462
16.46513367;2.90196085
16.46927834;2.70588231
16.47339058;2.52941179
16.47751236;2.21568632
16.47751236;2.25490189
16.48155022;2.72549009
16.48573685;2.50980401
16.48987389;2.64705873
16.48987389;2.37254906
16.49399376;2.09803915
16.49795151;2.09803915
16.50209618;2.43137264
16.50209618;2.88235283
16.50621605;2.60784316
16.51036072;2.68627453
16.51452255;1.90196073
16.51861954;2.19607854
16.52265739;2.66666675
16.52265739;2.76470590
16.52668762;2.90196085
16.53098869;2.74509811
16.53498650;2.35294127
16.53498650;1.90196073
16.53901672;2.33333325
16.54308891;2.90196085
16.54712677;2.86274505
16.54712677;2.92156863
16.55109978;2.64705873
16.55529404;2.41176462
16.55951309;2.41176462
16.56358528;2.88235283
16.56772232;3.00000000
16.56772232;2.76470590
16.57167816;2.60784316
16.57584763;2.17647052
16.57992744;2.37254906
16.57992744;2.96078420
16.58399200;3.03921580
16.58804703;3.13725495
16.59212685;2.90196085
16.59212685;2.27450991
16.59625435;2.13725495
16.60036659;2.37254906
16.60461044;2.90196085
16.60853386;2.76470590
16.61271286;2.33333325
16.61271286;2.43137264
16.61684036;2.25490189
16.62098694;2.74509811
16.62495041;2.92156863
16.62495041;2.90196085
16.62907982;2.70588231
16.63324165;2.27450991
16.63736153;1.96078432
16.63736153;1.96078432
16.64140129;2.43137264
16.64564514;2.50980401
16.64960861;2.23529410
16.64960861;2.11764717
16.65370560;2.11764717
16.65786743;1.31372547
16.65786743;1.60784316
16.66189766;1.98039210
16.66595268;2.13725495
16.67005730;2.33333325
16.67005730;2.11764717
16.67422676;1.54901958
16.67815781;1.43137252
16.68226242;1.94117641
16.68226242;2.41176462
16.68640709;2.41176462
16.69061852;2.19607854
16.69473839;1.94117641
16.69473839;1.76470590
16.69871140;2.13725495
16.70280075;2.64705873
16.70280075;2.80392146
16.70694542;2.94117641
16.71110725;2.82352948
16.71503067;2.98039222
16.71503067;2.37254906
16.71916008;2.80392146
16.72326279;3.29411769
16.72739983;3.17647052
16.72739983;3.03921580
16.73159409;2.96078420
16.73559189;2.66666675
16.73972893;2.74509811
16.73972893;3.17647052
16.74384117;3.43137264
16.74797058;3.43137264
16.74797058;3.54901958
16.75196075;2.94117641
16.75609779;2.50980401
16.76021004;2.74509811
16.76021004;2.96078420
16.76436234;3.17647052
16.76838493;3.31372547
16.77257919;3.25490189
16.77257919;2.84313726
16.77658463;2.37254906
16.78071404;2.64705873
16.78482628;3.11764717
16.78482628;3.27450991
16.78888893;3.27450991
16.79296112;3.05882359
16.79296112;2.62745094
16.79699898;2.56862736
16.80111122;3.21568632
16.80522537;4.00000000
16.80522537;3.35294127
16.80927086;2.98039222
16.81345749;2.76470590
16.81757736;1.49019611
16.81757736;1.17647064
16.82164955;1.05882359
16.82569695;0.54901963
16.82979965;0.01960784
16.82979965;0.35294119
16.83393669;0.00000000
16.83809090;0.00000000
16.84200668;0.00000000
16.84615898;0.15686275
16.85026360;0.70588237
16.85026360;0.94117647
16.85445023;1.23529410
16.85854530;1.72549021
16.86257744;2.74509811
16.86257744;3.17647052
16.86671448;3.39215684
16.87085915;3.07843137
16.87503624;2.96078420
16.87503624;2.78431368
16.87900925;3.11764717
16.88315582;3.58823538
16.88728333;3.80392146
16.89138794;3.49019599
16.89539337;2.96078420
16.89539337;2.70588231
16.89952278;3.41176462
16.90360260;3.80392146
16.90773964;3.37254906
16.90773964;3.49019599
16.91169548;3.23529410
16.91581726;2.92156863
16.92003441;2.74509811
16.92003441;3.29411769
16.92413139;3.60784316
16.92820358;3.39215684
16.93226624;2.70588231
16.93627930;2.64705873
16.94039154;2.82352948
16.94039154;3.39215684
16.94454575;3.23529410
16.94857597;3.21568632
16.95266342;2.92156863
16.95266342;2.39215684
16.95676804;2.29411769
16.96090508;2.62745094
16.96509171;3.11764717
16.96509171;2.88235283
16.96906471;2.70588231
16.97313499;2.25490189
16.97730637;2.21568632
16.98129463;2.47058821
16.98558044;2.66666675
16.98558044;2.58823538
16.98958588;2.49019599
16.99370575;2.07843137
16.99782562;1.66666663
16.99782562;1.88235295
17.00183296;2.15686274
17.00595284;2.39215684
17.01007271;2.17647052
17.01007271;1.96078432
17.01416969;1.49019611
17.01827431;1.13725495
17.02227974;2.09803915
17.02638435;2.01960778
17.03051186;1.74509799
17.03051186;1.35294116
17.03462410;0.98039216
17.03868866;0.94117647
17.04275131;1.41176474
17.04275131;1.56862748
17.04691315;1.33333337
17.05111504;1.00000000
17.05521202;0.68627453
17.05521202;0.50980395
17.05921745;0.92156863
17.06333733;1.27450979
17.06748390;1.05882359
17.07155418;0.86274511
17.07558441;0.54901963
17.07558441;0.35294119
17.07974625;0.88235295
17.08376884;1.35294116
17.08791351;1.33333337
17.08791351;1.21568632
17.09189606;1.13725495
17.09600830;0.56862748
17.10021782;0.84313726
17.10021782;1.45098042
17.10427284;1.78431368
17.10828781;2.03921580
17.11258888;1.76470590
17.11658669;1.98039210
17.12071419;2.07843137
17.12071419;2.68627453
17.12472916;3.03921580
17.12882423;3.05882359
17.13295364;3.13725495
17.13295364;2.66666675
17.13710785;2.49019599
17.14120293;3.23529410
17.14525795;3.94117641
17.14525795;3.88235283
17.14928055;3.88235283
17.15337563;3.56862736
17.15756989;3.21568632
17.15756989;3.47058821
17.16150284;4.03921556
17.16572189;4.23529434
17.16572189;4.15686274
17.16974449;4.15686274
17.17397881;3.88235283
17.17810822;3.19607854
17.17810822;4.01960802
17.18207359;4.31372547
17.18615150;4.27450991
17.19033051;4.35294104
17.19033051;4.01960802
17.19448280;3.56862736
17.19860458;3.43137264
17.20252037;3.66666675
17.20252037;4.07843161
17.20666504;4.11764717
17.21076202;4.00000000
17.21076202;3.54901958
17.21475029;3.37254906
17.21896172;3.35294127
17.22299957;3.68627453
17.22299957;3.66666675
17.22721863;3.82352948
17.23125839;3.49019599
17.23527908;3.05882359
17.23527908;2.90196085
17.23960495;3.23529410
17.24357796;3.60784316
17.24770737;3.70588231
17.24770737;3.47058821
17.25172043;3.25490189
17.25583267;3.23529410
17.25583267;2.74509811
17.25995445;3.27450991
17.26413155;3.49019599
17.26826859;3.33333325
17.26826859;3.11764717
17.27225876;2.76470590
17.27637863;2.37254906
17.28048325;2.88235283
17.28048325;3.19607854
17.28458023;3.37254906
17.28856850;3.23529410
17.29269791;2.98039222
17.29269791;2.80392146
17.29680252;2.50980401
17.30089760;2.88235283
17.30089760;3.19607854
17.30495262;3.31372547
17.30900764;3.03921580
17.31315231;2.80392146
17.31315231;2.58823538
17.31735611;2.54901958
17.32148361;3.13725495
17.32560539;3.41176462
17.32560539;3.15686274
17.32952881;3.07843137
17.33359146;2.62745094
17.33778572;2.35294127
17.33778572;2.23529410
17.34173584;2.98039222
17.34589577;3.15686274
17.35000801;2.96078420
17.35419464;2.43137264
17.35829163;2.35294127
17.35829163;2.70588231
17.36233711;3.19607854
17.36645889;3.21568632
17.37057877;2.96078420
17.37057877;2.78431368
17.37472343;2.31372547
17.37870598;2.52941179
17.38282585;3.00000000
17.38282585;3.33333325
17.38698006;3.15686274
17.39113998;3.00000000
17.39521217;2.37254906
17.39922714;2.37254906
17.40332222;2.90196085
17.40332222;2.96078420
17.40746689;3.21568632
17.41163635;2.88235283
17.41556168;2.23529410
17.41556168;2.21568632
17.41969872;2.54901958
17.42378616;3.19607854
17.42788124;3.03921580
17.42788124;2.98039222
17.43188858;2.56862736
17.43618774;2.17647052
17.44022751;2.88235283
17.44435692;3.21568632
17.44847679;3.23529410
17.44847679;2.92156863
17.45249939;2.62745094
17.45656204;2.19607854
17.46063423;2.35294127
17.46063423;2.70588231
17.46476173;3.07843137
17.46875954;2.86274505
17.47289658;2.70588231
17.47289658;2.35294127
17.47710037;2.13725495
17.48113060;2.60784316
17.48516083;3.01960778
17.48934746;2.98039222
17.49347496;2.58823538
17.49347496;2.13725495
17.49760437;2.25490189
17.50158501;2.82352948
17.50570679;3.05882359
17.50570679;2.82352948
17.50985146;2.82352948
17.51407814;2.49019599
17.51810837;1.96078432
17.51810837;2.29411769
17.52207375;2.80392146
17.52614594;3.01960778
17.53032303;2.64705873
17.53450966;2.13725495
17.53862953;2.07843137
17.53862953;2.54901958
17.54257774;3.27450991
17.54660797;3.00000000
17.55074501;2.76470590
17.55074501;2.47058821
17.55497360;1.92156863
17.55891228;2.33333325
17.56309128;2.64705873
17.56309128;2.94117641
17.56721878;2.94117641
17.57135582;2.76470590
17.57533836;1.96078432
17.57952499;2.25490189
17.58348846;2.72549009
17.58348846;2.90196085
17.58767509;2.64705873
17.59164047;2.41176462
17.59582710;2.29411769
17.59582710;1.92156863
17.59996223;2.43137264
17.60400963;2.86274505
17.60822868;2.78431368
17.60822868;2.98039222
17.61219406;2.43137264
17.61633873;2.15686274
17.62046814;2.78431368
17.62465477;3.07843137
17.62876701;2.68627453
17.62876701;2.50980401
17.63277245;2.11764717
17.63689995;1.72549021
17.64100456;1.92156863
17.64100456;2.74509811
17.64500999;3.21568632
17.64913177;2.66666675
17.65321922;2.41176462
17.65321922;2.15686274
17.65734863;2.07843137
17.66143608;2.58823538
17.66555595;2.86274505
17.66555595;2.82352948
17.66971016;2.72549009
17.67376518;2.49019599
17.67376518;2.05882359
17.67788506;2.07843137
17.68187523;2.58823538
17.68595505;2.88235283
17.68595505;2.86274505
17.69009209;2.64705873
17.69417191;2.31372547
17.69834900;1.74509799
17.69834900;2.50980401
17.70240402;2.90196085
17.70641899;2.88235283
17.71050644;2.82352948
17.71050644;2.54901958
17.71464348;2.07843137
17.71897697;2.01960778
17.71897697;2.50980401
17.72276115;2.80392146
17.72688103;2.64705873
17.73099327;2.47058821
17.73099327;2.25490189
17.73502541;1.78431368
17.73921013;2.27450991
17.74333191;2.52941179
17.74333191;2.43137264
17.74746895;2.37254906
17.75159645;2.37254906
17.75558662;1.90196073
17.75558662;1.49019611
17.75969887;1.76470590
17.76382828;2.19607854
17.76382828;2.21568632
17.76792336;2.13725495
17.77195358;1.88235295
17.77603340;1.50980389
17.77603340;1.70588231
17.78013039;2.01960778
17.78428268;2.52941179
17.78846169;2.58823538
17.78846169;2.68627453
17.79249191;1.68627453
17.79652977;1.70588231
17.80069923;2.05882359
17.80069923;2.52941179
17.80492783;2.86274505
17.80883408;2.94117641
17.81296349;2.66666675
17.81707573;2.35294127
17.82122040;2.88235283
17.82122040;3.19607854
17.82521057;3.11764717
17.82929802;3.09803915
17.83350945;2.96078420
17.83350945;2.45098042
17.83752251;2.50980401
17.84161949;2.92156863
17.84568977;3.47058821
17.84568977;3.50980401
17.84975433;3.17647052
17.85389137;2.88235283
17.85800362;2.90196085
17.86206627;3.33333325
17.86619568;3.37254906
17.86619568;3.35294127
17.87034798;3.17647052
17.87446976;2.68627453
17.87859726;2.60784316
17.87859726;2.82352948
17.88257027;3.29411769
17.88672447;3.27450991
17.89078712;3.23529410
17.89078712;2.92156863
17.89489174;2.45098042
17.89896202;2.62745094
17.90308380;3.70588231
17.90715408;3.47058821
17.91124344;3.31372547
17.91124344;2.78431368
17.91528893;2.00000000
17.91959000;1.70588231
17.92357254;1.49019611
17.92357254;0.94117647
17.92770004;0.39215687
17.93171501;0.00000000
17.93587685;0.00000000
17.93587685;0.29411766
17.93995667;0.07843138
17.94407654;0.37254903
17.94822121;1.07843137
17.95216942;1.54901958
17.95630646;1.88235295
17.95630646;2.41176462
17.96044350;3.45098042
17.96456528;3.80392146
17.96864319;3.88235283
17.96864319;3.70588231
17.97262573;3.54901958
17.97675323;3.27450991
17.98086739;3.41176462
17.98086739;3.82352948
17.98502731;3.88235283
17.98907471;3.80392146
17.99319458;3.01960778
17.99734116;3.00000000
18.00146103;3.45098042
18.00146103;3.92156863
18.00559044;3.72549009
18.00957108;3.60784316
18.01371574;3.37254906
18.01371574;3.11764717
18.01788712;3.21568632
18.02186775;3.50980401
18.02597237;3.70588231
18.02597237;3.64705873
18.03005981;3.37254906
18.03420448;3.00000000
18.03830910;2.76470590
18.04230690;3.39215684
18.04654121;3.33333325
18.04654121;3.33333325
18.05049896;3.00000000
18.05465126;2.56862736
18.05873108;2.35294127
18.05873108;2.74509811
18.06277847;3.17647052
18.06696510;3.05882359
18.07109261;2.88235283
18.07109261;2.66666675
18.07508278;2.13725495
18.07917023;2.39215684
18.08325005;2.96078420
18.08740425;2.86274505
18.09146690;2.68627453
18.09146690;2.25490189
18.09551430;1.76470590
18.09961700;1.96078432
18.10375404;2.49019599
18.10375404;2.43137264
18.10788345;2.33333325
18.11192131;2.07843137
18.11605835;1.68627453
18.11605835;1.47058821
18.12022018;1.76470590
18.12433243;2.23529410
18.12844467;2.00000000
18.12844467;1.88235295
18.13259125;1.52941179
18.13655472;1.19607842
18.13655472;1.09803927
18.14072609;1.23529410
18.14484596;1.66666663
18.14910507;1.33333337
18.14910507;1.41176474
18.15299606;0.80392158
18.15710068;0.47058824
18.16131973;0.88235295
18.16131973;1.23529410
18.16521072;1.39215684
18.16932297;1.19607842
18.17350197;0.86274511
18.17350197;0.25490198
18.17749023;0.58823532
18.18161201;1.11764705
18.18161201;1.25490201
18.18573189;1.27450979
18.18983650;1.05882359
18.19394875;1.00000000
18.19394875;0.70588237
18.19808578;0.84313726
18.20200157;1.37254906
18.20618820;1.74509799
18.20618820;1.88235295
18.21027565;1.64705884
18.21441269;1.54901958
18.21849251;1.58823526
18.21849251;2.29411769
18.22249031;2.96078420
18.22662735;3.09803915
18.22662735;3.09803915
18.23073006;3.09803915
18.23496628;2.86274505
18.23895645;3.01960778
18.23895645;3.54901958
18.24308395;4.07843161
18.24719620;4.19607830
18.25134277;3.96078420
18.25134277;3.70588231
18.25533104;3.43137264
18.25959969;3.64705873
18.26358795;4.07843161
18.26358795;4.68627453
18.26775932;4.54901981
18.27187157;4.47058821
18.27187157;4.13725471
18.27580261;3.72549009
18.27999687;4.25490189
18.28408432;4.74509811
18.28408432;4.54901981
18.28824615;4.31372547
18.29217911;4.29411745
18.29629898;3.76470590
18.29629898;3.66666675
18.30037880;3.98039222
18.30453300;4.15686274
18.30870247;4.05882359
18.30870247;3.94117641
18.31265068;3.70588231
18.31682777;3.37254906
18.32097435;3.96078420
18.32510185;4.09803915
18.32905197;4.13725471
18.32905197;3.76470590
18.33312988;3.45098042
18.33729172;3.15686274
18.34145355;3.43137264
18.34145355;3.80392146
18.34551620;3.84313726
18.34949112;3.76470590
18.35363579;3.35294127
18.35363579;2.82352948
18.35775566;2.56862736
18.36195755;3.35294127
18.36593246;3.54901958
18.37008476;3.41176462
18.37427139;3.15686274
18.37427139;2.76470590
18.37839127;3.11764717
18.38237381;3.50980401
18.38656807;3.60784316
18.38656807;3.11764717
18.39062309;3.11764717
18.39475060;3.03921580
18.39885521;2.56862736
18.39885521;3.17647052
18.40290260;3.39215684
18.40696526;3.21568632
18.41111946;3.03921580
18.41518211;2.68627453
18.41917992;2.66666675
18.41917992;3.11764717
18.42343903;3.25490189
18.42746162;3.07843137
18.43162346;2.82352948
18.43162346;2.58823538
18.43562126;2.31372547
18.43964386;2.50980401
18.44377136;3.05882359
18.44377136;3.31372547
18.44796562;3.19607854
18.45202065;2.70588231
18.45606804;2.23529410
18.46012306;2.66666675
18.46430969;2.96078420
18.46430969;2.94117641
18.46837234;3.01960778
18.47250938;2.76470590
18.47649002;2.39215684
18.47649002;2.37254906
18.48069382;2.76470590
18.48477364;3.09803915
18.48896790;3.03921580
18.48896790;2.78431368
18.49294853;2.45098042
18.49706841;2.01960778
18.50119019;3.03921580
18.50519562;3.15686274
18.50933266;3.03921580
18.50933266;2.68627453
18.51346207;2.27450991
18.51753998;2.17647052
18.52169418;2.72549009
18.52169418;3.01960778
18.52568436;2.90196085
18.52977180;2.82352948
18.53394890;2.56862736
18.53394890;2.19607854
18.53807831;2.37254906
18.54206848;2.72549009
18.54614639;3.00000000
18.55030823;2.78431368
18.55446243;2.45098042
18.55446243;2.13725495
18.55859184;2.54901958
18.56256485;3.05882359
18.56668472;3.15686274
18.56668472;2.98039222
18.57083893;2.68627453
18.57495880;2.41176462
18.57902145;2.23529410
18.57902145;2.70588231
18.58296967;3.19607854
18.58714867;3.09803915
18.59126854;2.76470590
18.59525871;2.25490189
18.59948540;2.11764717
18.59948540;2.72549009
18.60349083;3.23529410
18.60764503;3.07843137
18.61183929;3.03921580
18.61183929;2.37254906
18.61581993;2.37254906
18.61990738;2.56862736
18.62406921;3.17647052
18.62406921;3.23529410
18.62818146;3.37254906
18.63221169;3.07843137
18.63627625;2.98039222
18.63627625;2.35294127
18.64040375;2.86274505
18.64452553;3.27450991
18.64452553;3.17647052
18.64849091;3.11764717
18.65263557;2.80392146
18.65675545;2.37254906
18.65675545;2.47058821
18.66094208;2.92156863
18.66499710;3.23529410
18.66915894;3.11764717
18.66915894;2.94117641
18.67321396;2.45098042
18.67733383;2.29411769
18.68146324;2.66666675
18.68146324;3.19607854
18.68558311;3.31372547
18.68957329;3.09803915
18.68957329;2.92156863
18.69371033;2.07843137
18.69783020;2.31372547
18.70190239;2.90196085
18.70190239;3.23529410
18.70592499;3.13725495
18.70999527;2.72549009
18.71413994;2.64705873
18.71413994;2.23529410
18.71824455;2.41176462
18.72227478;2.96078420
18.72649384;3.09803915
18.72649384;3.15686274
18.73051643;2.88235283
18.73464584;2.41176462
18.73464584;2.17647052
18.73870087;2.62745094
18.74280357;2.96078420
18.74695778;2.84313726
18.74695778;2.86274505
18.75107765;2.62745094
18.75518227;2.25490189
18.75921249;2.17647052
18.75921249;2.58823538
18.76332474;3.00000000
18.76749611;2.88235283
18.77161598;2.80392146
18.77161598;2.43137264
18.77558136;1.88235295
18.77967644;2.29411769
18.77967644;2.58823538
18.78383064;2.72549009
18.78791809;2.64705873
18.79204750;2.50980401
18.79204750;1.86274505
18.79607773;1.49019611
18.80011559;2.03921580
18.80430222;2.39215684
18.80430222;2.35294127
18.80835724;2.23529410
18.81251907;1.96078432
18.81655693;1.52941179
18.81655693;1.47058821
18.82069397;2.07843137
18.82480621;2.47058821
18.82876396;2.27450991
18.83283424;1.96078432
18.83702850;1.64705884
18.83702850;1.84313726
18.84110069;2.37254906
18.84525299;2.50980401
18.84922600;2.62745094
18.84922600;2.19607854
18.85349464;1.94117641
18.85751724;1.72549021
18.86170387;2.17647052
18.86170387;2.80392146
18.86568451;2.86274505
18.86977196;2.78431368
18.87393379;2.25490189
18.87806320;2.33333325
18.88220787;2.68627453
18.88220787;3.00000000
18.88612366;3.17647052
18.89033508;3.25490189
18.89449501;2.64705873
18.89449501;2.21568632
18.89860725;2.60784316
18.90254784;2.94117641
18.90670204;2.86274505
18.90670204;2.82352948
18.91093636;2.88235283
18.91492653;2.47058821
18.91893196;2.74509811
18.92300415;2.94117641
18.92711639;3.17647052
18.92711639;3.03921580
18.93124580;2.78431368
18.93535805;2.43137264
18.93953514;2.47058821
18.93953514;2.94117641
18.94357491;3.21568632
18.94769478;3.01960778
18.95185661;2.92156863
18.95185661;2.43137264
18.95583725;2.03921580
18.95992470;2.47058821
18.96416855;3.23529410
18.96816635;2.98039222
18.97233582;2.47058821
18.97233582;1.62745094
18.97625923;0.78431374
18.98047066;0.76470590
18.98453331;0.80392158
18.98453331;0.23529412
18.98870468;0.00000000
18.99266052;0.03921569
18.99678993;0.13725491
18.99678993;0.21568628
19.00090981;0.45098040
19.00506401;1.23529410
19.00915909;2.19607854
19.01315689;2.64705873
19.01733398;2.72549009
19.01733398;2.94117641
19.02140617;3.70588231
19.02560043;3.58823538
19.02956581;3.49019599
19.02956581;3.21568632
19.03370285;3.15686274
19.03782272;2.66666675
19.04193497;3.09803915
19.04193497;3.37254906
19.04593277;3.45098042
19.05003738;3.27450991
19.05418968;2.60784316
19.05828667;2.68627453
19.06241608;3.19607854
19.06241608;3.21568632
19.06653595;3.25490189
19.07055855;3.00000000
19.07466316;2.82352948
19.07466316;2.47058821
19.07884026;2.68627453
19.08278847;3.13725495
19.08692551;3.29411769
19.08692551;3.17647052
19.09102249;3.00000000
19.09521675;2.62745094
19.09919739;3.17647052
19.10327721;3.27450991
19.10740662;3.11764717
19.10740662;2.90196085
19.11152649;2.64705873
19.11553192;2.05882359
19.11980820;2.17647052
19.11980820;2.60784316
19.12379837;2.72549009
19.12790298;2.80392146
19.13203049;2.68627453
19.13203049;2.31372547
19.13604546;1.78431368
19.14017296;1.98039210
19.14429474;2.35294127
19.14429474;2.47058821
19.14841461;2.68627453
19.15256882;2.15686274
19.15256882;1.74509799
19.15655708;1.39215684
19.16065407;1.84313726
19.16479111;2.60784316
19.16479111;2.21568632
19.16880417;2.15686274
19.17295074;1.56862748
19.17707062;1.05882359
19.17707062;1.19607842
19.18115807;1.72549021
19.18527985;2.27450991
19.18931007;1.70588231
19.18931007;1.43137252
19.19351959;1.07843137
19.19752693;0.56862748
19.19752693;0.92156863
19.20164680;1.45098042
19.20565987;1.49019611
19.20975685;1.37254906
19.20975685;1.05882359
19.21391869;0.56862748
19.21803856;0.41176471
19.22215080;0.80392158
19.22215080;1.25490201
19.22615623;0.74509805
19.23031044;0.72549021
19.23443031;0.56862748
19.23443031;0.35294119
19.23855972;0.39215687
19.24265480;1.00000000
19.24265480;1.23529410
19.24665260;1.54901958
19.25077438;1.29411769
19.25493622;0.98039216
19.25493622;1.00000000
19.25889969;1.25490201
19.26302910;1.92156863
19.26719093;2.01960778
19.26719093;2.19607854
19.27127075;2.03921580
19.27543259;1.82352936
19.27951241;1.80392158
19.27951241;2.58823538
19.28354263;3.07843137
19.28761292;3.41176462
19.29174232;3.37254906
19.29572296;2.94117641
19.29981995;3.43137264
19.29981995;3.94117641
19.30398178;4.29411745
19.30806923;4.25490189
19.31219673;4.05882359
19.31219673;3.78431368
19.31619453;3.62745094
19.32034874;4.15686274
19.32444382;4.60784292
19.32444382;4.60784292
19.32869720;4.64705896
19.33263588;4.41176462
19.33677292;3.82352948
19.34093475;4.25490189
19.34504700;4.64705896
19.34504700;4.64705896
19.34901237;4.29411745
19.35313225;4.01960802
19.35725403;3.54901958
19.35725403;3.90196085
19.36134148;4.31372547
19.36547089;4.52941179
19.36954117;4.37254906
19.36954117;4.11764717
19.37366295;3.56862736
19.37775040;3.31372547
19.38189507;3.68627453
19.38595009;4.21568632
19.39000511;4.01960802
19.39000511;3.66666675
19.39414978;3.07843137
19.39824677;3.13725495
19.40253830;3.49019599
19.40253830;3.96078420
19.40648842;3.88235283
19.41050148;3.62745094
19.41464615;3.15686274
19.41464615;2.90196085
19.41880798;3.09803915
19.42282295;3.27450991
19.42693520;3.58823538
19.43105507;3.21568632
19.43519211;2.72549009
19.43519211;2.58823538
19.43918228;3.00000000
19.44330978;3.35294127
19.44742203;3.41176462
19.44742203;3.35294127
19.45156860;3.05882359
19.45552444;2.66666675
19.45966911;2.54901958
19.45966911;3.07843137
19.46374893;3.37254906
19.46786118;3.27450991
19.47204018;2.76470590
19.47598076;2.31372547
19.48013306;2.68627453
19.48013306;3.21568632
19.48430252;3.17647052
19.48839188;2.86274505
19.49255180;3.00000000
19.49255180;2.56862736
19.49654961;2.29411769
19.50067902;2.84313726
19.50482368;3.11764717
19.50482368;3.07843137
19.50896072;3.31372547
19.51292610;2.56862736
19.51711273;2.37254906
19.52124023;2.78431368
19.52536201;3.15686274
19.52536201;3.03921580
19.52931786;3.13725495
19.53357887;2.66666675
19.53753471;2.29411769
19.53753471;2.45098042
19.54172897;2.80392146
19.54584122;3.05882359
19.54980659;2.92156863
19.54980659;2.84313726
19.55388641;2.45098042
19.55798149;2.21568632
19.56213570;2.62745094
19.56618309;3.07843137
19.57032776;2.98039222
19.57032776;2.49019599
19.57443237;2.07843137
19.57853508;2.25490189
19.58262444;2.72549009
19.58262444;3.11764717
19.58662987;3.07843137
19.59075928;2.90196085
19.59486198;2.58823538
19.59486198;2.29411769
19.59894180;2.29411769
19.60299683;2.82352948
19.60718346;2.88235283
19.60718346;2.86274505
19.61126328;2.62745094
19.61542511;2.25490189
19.61542511;2.33333325
19.61950493;2.52941179
19.62356758;2.94117641
19.62768745;3.01960778
19.62768745;2.80392146
19.63181686;2.56862736
19.63589668;2.17647052
19.63998413;2.29411769
19.63998413;2.84313726
19.64411354;3.01960778
19.64820862;2.90196085
19.65258408;2.62745094
19.65258408;2.25490189
19.65634346;2.27450991
19.66054535;2.35294127
19.66054535;2.72549009
19.66460037;2.92156863
19.66867256;2.84313726
19.67273521;2.68627453
19.67273521;2.07843137
19.67673302;2.11764717
19.68093681;2.35294127
19.68500710;2.68627453
19.68500710;2.72549009
19.68904686;2.82352948
19.69316673;2.45098042
19.69730377;2.00000000
19.69730377;2.25490189
19.70144081;2.68627453
19.70552826;2.80392146
19.70552826;2.66666675
19.70946884;2.76470590
19.71362114;2.35294127
19.71773529;2.03921580
19.71773529;2.50980401
19.72184753;2.88235283
19.72593498;2.80392146
19.73004723;2.78431368
19.73004723;2.54901958
19.73419952;2.21568632
19.73837852;2.05882359
19.74244881;2.54901958
19.74244881;2.94117641
19.74657059;2.90196085
19.75054359;2.86274505
19.75054359;2.45098042
19.75467300;2.07843137
19.75882530;2.29411769
19.76282310;2.66666675
19.76282310;2.92156863
19.76692009;2.82352948
19.77111435;2.47058821
19.77522659;2.25490189
19.77522659;2.01960778
19.77919006;2.29411769
19.78336906;2.76470590
19.78754616;2.76470590
19.78754616;2.78431368
19.79153633;2.29411769
19.79566574;2.11764717
19.79960442;2.49019599
19.80382347;2.90196085
19.80786324;2.94117641
19.80786324;2.92156863
19.81203270;2.52941179
19.81601334;2.13725495
19.82018280;2.23529410
19.82018280;2.66666675
19.82431221;2.84313726
19.82840919;2.72549009
19.83250427;2.37254906
19.83250427;1.56862748
19.83650208;1.64705884
19.84068871;2.00000000
19.84471130;2.64705873
19.84885597;2.21568632
19.85284424;1.76470590
19.85284424;1.49019611
19.85696602;1.49019611
19.86112785;2.39215684
19.86532211;2.47058821
19.86532211;2.54901958
19.86924553;2.35294127
19.87354660;2.07843137
19.87754440;1.70588231
19.87754440;2.00000000
19.88168907;2.58823538
19.88589096;2.92156863
19.88975906;2.37254906
19.89392853;2.05882359
19.89798355;1.80392158
19.89798355;2.03921580
19.90208626;2.74509811
19.90611839;2.96078420
19.91020584;3.01960778
19.91020584;2.90196085
19.91434288;2.60784316
19.91846275;2.37254906
19.92269897;3.19607854
19.92269897;3.47058821
19.92668724;3.49019599
19.93080902;3.23529410
19.93494606;2.88235283
19.93906593;2.98039222
19.94306374;3.35294127
19.94306374;3.41176462
19.94717598;3.35294127
19.95132065;3.05882359
19.95539284;2.76470590
19.95539284;2.62745094
19.95947266;2.90196085
19.96348572;3.25490189
19.96759033;3.64705873
19.96759033;3.09803915
19.97171974;2.92156863
19.97583961;2.43137264
19.97983742;2.92156863
19.98406410;3.15686274
19.98817635;3.09803915
19.98817635;3.19607854
19.99231339;2.88235283
19.99628639;2.33333325
20.00056267;2.68627453
20.00056267;3.09803915
20.00454521;3.25490189
20.00868988;3.15686274
20.01281929;2.74509811
20.01281929;1.82352936
20.01679993;1.03921568
20.02087212;1.31372547
20.02499962;0.45098040
20.02909660;0.05882353
20.03308487;0.00000000
20.03308487;0.07843138
20.03726387;0.03921569
20.04140854;0.11764706
20.04550362;0.33333334
20.04550362;0.74509805
20.04955101;0.94117647
20.05366325;1.41176474
20.05781746;1.94117641
20.05781746;2.35294127
20.06194496;3.11764717
20.06606674;3.43137264
20.07003975;3.01960778
20.07416916;2.78431368
20.07825661;2.47058821
20.07825661;2.98039222
20.08241844;3.27450991
20.08655548;3.39215684
20.09047890;3.35294127
20.09047890;2.78431368
20.09459877;2.35294127
20.09871101;2.58823538
20.10283279;3.09803915
20.10283279;3.47058821
20.10687065;3.43137264
20.11104965;3.21568632
20.11516953;3.17647052
20.11516953;2.35294127
20.11924934;2.52941179
20.12331963;3.01960778
20.12331963;2.96078420
20.12742424;2.92156863
20.13154602;2.66666675
20.13566589;2.39215684
20.13566589;2.21568632
20.13966370;2.62745094
20.14383316;3.05882359
20.14783859;2.86274505
20.14783859;2.66666675
20.15199280;2.41176462
20.15599823;2.00000000
20.16008568;1.96078432
20.16008568;2.49019599
20.16422272;2.74509811
20.16832733;2.56862736
20.16832733;2.37254906
20.17251396;2.07843137
20.17653465;1.54901958
20.18066406;1.58823526
20.18066406;2.25490189
20.18479347;2.41176462
20.18893814;2.39215684
20.19294357;1.92156863
20.19294357;1.47058821
20.19705582;1.33333337
20.20120239;1.74509799
20.20528221;2.17647052
20.20528221;1.98039210
20.20924568;1.86274505
20.21350670;1.58823526
20.21350670;1.07843137
20.21747017;1.05882359
20.22159195;1.49019611
20.22571945;1.82352936
20.22571945;1.54901958
20.22970200;1.27450979
20.23392105;1.00000000
20.23804855;0.66666669
20.23804855;0.94117647
20.24219513;1.33333337
20.24619293;1.68627453
20.25028801;1.21568632
20.25028801;0.78431374
20.25441742;0.49019608
20.25854492;0.33333334
20.25854492;0.76470590
20.26269150;1.11764705
20.26668930;1.09803927
20.27084923;0.70588237
20.27084923;0.54901963
20.27497101;0.39215687
20.27906609;0.70588237
20.28318787;1.17647064
20.28318787;1.23529410
20.28715134;1.13725495
20.29134560;0.90196079
20.29541779;0.64705884
20.29541779;0.39215687
20.29948044;0.98039216
20.30347824;1.68627453
20.30760765;1.78431368
20.31171989;1.60784316
20.31593895;1.49019611
20.31593895;1.72549021
20.31988716;2.27450991
20.32405663;3.13725495
20.32813644;3.03921580
20.32813644;3.17647052
20.33223343;2.84313726
20.33621407;2.52941179
20.34049034;2.98039222
20.34049034;3.62745094
20.34447098;3.96078420
20.34859276;4.07843161
20.35263824;3.60784316
20.35675049;3.52941179
20.36087990;3.96078420
20.36087990;4.62745094
20.36504173;4.60784292
20.36921883;4.54901981
20.37318420;4.17647076
20.37318420;3.50980401
20.37728882;3.66666675
20.38143349;4.15686274
20.38556290;4.60784292
20.38556290;4.45098019
20.38954353;4.35294104
20.39370537;3.92156863
20.39777756;3.92156863
20.40188980;4.17647076
20.40602684;4.37254906
20.40602684;4.09803915
20.41005707;3.90196085
20.41421890;3.54901958
20.41828156;3.33333325
20.41828156;3.80392146
20.42235374;4.21568632
20.42644882;4.13725471
20.43048668;3.92156863
20.43048668;3.52941179
20.43458366;3.13725495
20.43875313;3.01960778
20.44293213;3.62745094
20.44692802;3.68627453
20.45104980;3.54901958
20.45104980;3.15686274
20.45512009;2.72549009
20.45919991;2.90196085
20.46324730;3.50980401
20.46324730;3.64705873
20.46734428;3.62745094
20.47146416;3.29411769
20.47558403;2.86274505
20.47558403;2.54901958
20.47966385;2.84313726
20.48377609;3.23529410
20.48790550;3.15686274
20.49205017;2.86274505
20.49618721;2.45098042
20.49618721;2.35294127
20.50016785;2.74509811
20.50428963;3.23529410
20.50840950;3.09803915
20.50840950;2.86274505
20.51256371;2.54901958
20.51656151;2.29411769
20.52068901;2.49019599
20.52068901;3.00000000
20.52485085;3.03921580
20.52893066;2.82352948
20.53292847;2.43137264
20.53700829;2.17647052
20.54110336;2.56862736
20.54110336;2.84313726
20.54530716;2.92156863
20.54933739;2.72549009
20.55345726;2.39215684
20.55345726;2.29411769
20.55749702;2.07843137
20.56156731;2.64705873
20.56572914;2.78431368
20.56572914;2.88235283
20.56975174;2.78431368
20.57388878;2.49019599
20.57800102;2.45098042
20.58213806;2.60784316
20.58619308;2.86274505
20.58619308;2.86274505
20.59025574;2.45098042
20.59436798;2.29411769
20.59847260;1.88235295
20.59847260;2.47058821
20.60259247;2.94117641
20.60666466;2.86274505
20.61067963;2.72549009
20.61067963;2.35294127
20.61486435;1.76470590
20.61899376;2.05882359
20.62304878;2.72549009
20.62304878;2.92156863
20.62715340;2.60784316
20.63128090;2.62745094
20.63128090;2.49019599
20.63540268;1.86274505
20.63953018;2.17647052
20.64351273;3.01960778
20.64351273;2.90196085
20.64756012;2.84313726
20.65169525;2.49019599
20.65585709;2.05882359
20.65585709;2.05882359
20.65982246;2.50980401
20.66395950;3.05882359
20.66806412;2.96078420
20.66806412;2.56862736
20.67226601;2.35294127
20.67640305;1.90196073
20.67640305;2.00000000
20.68052292;2.66666675
20.68453026;3.09803915
20.68865776;2.90196085
20.68865776;2.54901958
20.69265556;2.13725495
20.69677734;1.82352936
20.70090485;2.25490189
20.70090485;2.74509811
20.70500946;2.54901958
20.70908928;2.62745094
20.71310425;2.33333325
20.71310425;1.84313726
20.71720695;1.86274505
20.72141075;2.41176462
20.72141075;2.88235283
20.72546577;2.66666675
20.72944641;2.68627453
20.73364067;2.31372547
20.73364067;1.86274505
20.73781013;2.03921580
20.74193192;2.54901958
20.74605179;2.58823538
20.74605179;2.76470590
20.75002480;2.39215684
20.75417900;2.13725495
20.75828171;1.88235295
20.75828171;2.17647052
20.76242828;2.64705873
20.76649857;2.64705873
20.77047157;2.45098042
20.77460098;2.11764717
20.77877808;1.98039210
20.77877808;2.45098042
20.78271866;2.86274505
20.78683090;2.76470590
20.79095268;2.76470590
20.79095268;2.50980401
20.79512215;2.07843137
20.79930687;2.17647052
20.80334663;2.60784316
20.80334663;2.68627453
20.80755806;3.05882359
20.81155396;2.80392146
20.81567574;2.11764717
20.81963158;2.58823538
20.82378578;2.98039222
20.82378578;3.09803915
20.82786560;3.01960778
20.83201790;2.78431368
20.83615494;2.29411769
20.83615494;2.27450991
20.84009552;2.70588231
20.84421539;3.11764717
20.84840202;3.13725495
20.84840202;2.98039222
20.85252380;2.68627453
20.85649681;2.19607854
20.86064911;2.76470590
20.86477852;2.86274505
20.86891556;2.92156863
20.86891556;3.21568632
20.87292099;2.43137264
20.87703323;2.13725495
20.88117790;2.56862736
20.88117790;3.03921580
20.88530731;2.94117641
20.88942719;3.00000000
20.89348221;2.82352948
20.89348221;2.29411769
20.89746475;2.13725495
20.90167427;2.68627453
20.90572166;2.58823538
20.90970230;2.70588231
20.91383171;2.33333325
20.91383171;1.62745094
20.91795158;2.03921580
20.92216301;2.52941179
20.92630005;2.72549009
20.92630005;2.49019599
20.93027306;2.17647052
20.93441772;1.80392158
20.93848991;1.49019611
20.93848991;2.01960778
20.94267654;2.43137264
20.94668198;2.27450991
20.95077705;1.64705884
20.95487404;1.35294116
20.95902634;1.43137252
20.95902634;1.96078432
20.96301651;2.47058821
20.96708870;2.35294127
20.97120094;2.29411769
20.97120094;1.92156863
20.97532845;1.47058821
20.97944260;1.80392158
20.98351288;2.27450991
20.98351288;2.35294127
20.98766708;2.29411769
20.99178696;2.19607854
20.99593163;1.80392158
20.99990463;2.52941179
21.00401688;2.96078420
21.00401688;3.00000000
21.00815392;2.98039222
21.01228333;2.72549009
21.01646042;2.43137264
21.01646042;2.56862736
21.02058983;3.11764717
21.02457047;3.35294127
21.02864265;3.41176462
21.02864265;3.25490189
21.03279686;2.94117641
21.03677750;2.54901958
21.04088974;3.37254906
21.04502678;3.54901958
21.04918098;3.50980401
21.04918098;3.09803915
21.05305481;2.82352948
21.05722427;2.68627453
21.06146049;3.15686274
21.06146049;3.47058821
21.06553078;3.39215684
21.06950378;3.09803915
21.07366562;2.94117641
21.07366562;2.58823538
21.07775307;2.58823538
21.08189011;3.09803915
21.08597946;3.23529410
21.08597946;3.33333325
21.09000015;3.19607854
21.09407997;3.01960778
21.09407997;2.58823538
21.09822655;2.62745094
21.10232925;2.86274505
21.10655785;2.54901958
21.10655785;1.98039210
21.11047363;1.15686274
21.11465836;0.39215687
21.11878014;0.05882353
21.11878014;0.11764706
21.12280083;0.09803922
21.12691498;0.03921569
21.13101768;0.03921569
21.13101768;0.03921569
21.13515472;0.11764706
21.13941574;0.50980395
21.13941574;1.47058821
21.14336395;2.39215684
21.14767265;2.86274505
21.15155602;2.92156863
21.15155602;2.84313726
21.15564346;2.64705873
21.15967369;2.92156863
21.16377068;3.52941179
21.16377068;3.60784316
21.16789055;3.58823538
21.17201996;3.37254906
21.17609024;2.66666675
21.17609024;2.94117641
21.18008041;3.37254906
21.18420029;3.64705873
21.18420029;3.56862736
21.18837929;3.70588231
21.19255638;3.35294127
21.19668579;2.60784316
21.19668579;2.86274505
21.20067406;3.21568632
21.20477104;3.62745094
21.20882607;3.39215684
21.20882607;3.03921580
21.21285629;2.76470590
21.21693611;2.35294127
21.22113037;2.68627453
21.22113037;3.15686274
21.22520256;3.07843137
21.22933769;3.19607854
21.22933769;2.86274505
21.23345184;2.49019599
21.23757172;2.17647052
21.24167633;2.43137264
21.24167633;2.78431368
21.24580383;2.90196085
21.24978638;2.76470590
21.25390625;2.45098042
21.25390625;2.03921580
21.25802612;2.11764717
21.26218033;2.52941179
21.26633453;2.66666675
21.26633453;2.52941179
21.27033997;2.31372547
21.27458382;1.92156863
21.27458382;1.58823526
21.27858162;1.90196073
21.28270912;2.45098042
21.28677368;2.31372547
21.28677368;2.17647052
21.29076195;1.94117641
21.29489899;1.56862748
21.29896164;1.47058821
21.29896164;1.80392158
21.30305099;2.01960778
21.30709648;1.80392158
21.31123352;1.80392158
21.31123352;1.62745094
21.31542778;1.17647064
21.31949234;1.23529410
21.32353020;1.76470590
21.32761765;1.54901958
21.33174706;1.45098042
21.33174706;1.13725495
21.33586693;0.74509805
21.33987236;1.03921568
21.34396935;1.41176474
21.34396935;1.52941179
21.34806442;1.27450979
21.35220146;1.05882359
21.35633087;0.78431374
21.35633087;0.49019608
21.36055756;1.05882359
21.36454773;1.33333337
21.36865234;1.15686274
21.37280464;0.84313726
21.37679482;0.39215687
21.37679482;0.54901963
21.38090706;1.49019611
21.38502693;1.45098042
21.38917351;1.52941179
21.38917351;1.43137252
21.39312935;1.21568632
21.39720154;1.03921568
21.40146828;1.62745094
21.40146828;2.17647052
21.40551567;2.41176462
21.40957069;2.37254906
21.41357613;2.03921580
21.41768837;2.19607854
21.42184258;2.84313726
21.42184258;3.29411769
21.42604446;3.52941179
21.43002701;3.60784316
21.43415451;3.19607854
21.43415451;2.92156863
21.43833351;3.05882359
21.44242859;3.43137264
21.44655037;4.01960802
21.44655037;3.90196085
21.45052338;3.86274505
21.45462608;3.54901958
21.45877266;3.82352948
21.46286011;4.21568632
21.46681595;4.15686274
21.46681595;4.05882359
21.47100258;4.00000000
21.47507477;3.70588231
21.47922707;3.60784316
21.47922707;4.01960802
21.48323250;4.31372547
21.48755074;4.17647076
21.49154091;3.92156863
21.49154091;3.41176462
21.49567604;3.01960778
21.49966621;3.41176462
21.50377846;4.03921556
21.50790787;3.76470590
21.51202774;3.52941179
21.51202774;3.19607854
21.51612473;2.80392146
21.52012253;3.13725495
21.52422523;3.74509811
21.52422523;3.74509811
21.52839661;4.07843161
21.53254128;3.45098042
21.53657150;2.90196085
21.53657150;2.96078420
21.54056931;3.27450991
21.54473114;3.62745094
21.54890060;3.41176462
21.55285645;2.94117641
21.55705070;2.74509811
21.55705070;2.88235283
21.56117249;3.29411769
21.56529999;3.45098042
21.56935501;3.21568632
21.56935501;3.03921580
21.57354164;2.54901958
21.57753181;2.47058821
21.58163643;2.90196085
21.58163643;3.27450991
21.58585358;3.29411769
21.58972931;3.19607854
21.59382439;2.84313726
21.59382439;2.33333325
21.59793854;2.60784316
21.60207558;3.09803915
21.60207558;3.31372547
21.60623550;3.31372547
21.61026573;3.25490189
21.61455154;2.96078420
21.61455154;2.47058821
21.61852455;2.60784316
21.62266922;3.09803915
21.62679863;3.31372547
21.62679863;3.15686274
21.63077164;2.90196085
21.63489914;2.64705873
21.63903618;2.31372547
21.63903618;2.78431368
21.64299393;3.27450991
21.64713860;3.09803915
21.64713860;3.09803915
21.65125084;2.70588231
21.65534782;1.94117641
21.65944290;2.37254906
21.65944290;3.01960778
21.66344833;3.41176462
21.66756058;3.17647052
21.67167473;3.00000000
21.67167473;2.52941179
21.67590904;1.82352936
21.67991447;2.64705873
21.68402672;3.19607854
21.68402672;3.13725495
21.68822098;3.05882359
21.69227600;2.84313726
21.69227600;2.33333325
21.69629860;2.09803915
21.70052528;2.70588231
21.70449829;3.05882359
21.70449829;3.03921580
21.70864487;2.96078420
21.71272469;2.72549009
21.71681213;2.09803915
21.71681213;2.29411769
21.72083473;2.72549009
21.72493744;3.01960778
21.72905922;2.86274505
21.72905922;2.78431368
21.73310661;2.49019599
21.73728371;2.00000000
21.73728371;2.37254906
21.74142838;2.80392146
21.74555016;3.11764717
21.74967003;2.94117641
21.74967003;2.68627453
21.75364304;1.84313726
21.75778770;1.86274505
21.76189995;2.54901958
21.76189995;3.13725495
21.76607895;2.94117641
21.77008438;2.84313726
21.77417946;2.62745094
21.77417946;2.49019599
21.77825928;1.96078432
21.78239632;2.64705873
21.78651810;2.90196085
21.79050636;2.37254906
21.79464340;2.15686274
21.79464340;1.74509799
21.79871559;2.13725495
21.80287743;2.66666675
21.80685043;2.70588231
21.80685043;2.86274505
21.81094551;2.58823538
21.81509972;2.47058821
21.81930161;2.09803915
21.81930161;2.45098042
21.82329178;2.74509811
21.82751083;2.64705873
21.83149910;2.70588231
21.83558846;2.07843137
21.83974838;2.17647052
21.83974838;2.43137264
21.84378815;2.80392146
21.84785080;2.76470590
21.85194778;3.00000000
21.85194778;2.15686274
21.85610008;2.01960778
21.86005783;2.41176462
21.86423492;2.90196085
21.86423492;2.92156863
21.86839676;2.80392146
21.87254906;2.62745094
21.87667084;2.01960778
21.88064384;2.60784316
21.88478851;3.00000000
21.88478851;2.88235283
21.88891792;2.64705873
21.89307976;2.50980401
21.89715004;2.29411769
21.89715004;2.15686274
21.90117264;2.78431368
21.90532684;2.86274505
21.90942192;2.70588231
21.90942192;2.58823538
21.91357613;2.29411769
21.91750717;2.19607854
21.92161942;3.01960778
21.92570686;2.92156863
21.92982101;2.82352948
21.92982101;2.56862736
21.93380928;2.54901958
21.93801308;2.17647052
21.94214821;2.56862736
21.94214821;2.88235283
21.94628525;2.70588231
21.95027542;2.70588231
21.95449448;2.50980401
21.95449448;1.84313726
21.95845032;2.39215684
21.96260452;2.72549009
21.96668434;2.88235283
21.97071457;2.86274505
21.97489166;2.25490189
21.97489166;1.96078432
21.97894669;2.37254906
21.98310089;2.74509811
21.98714828;2.86274505
21.98714828;2.72549009
21.99127579;2.50980401
21.99539757;2.11764717
21.99948502;2.25490189
21.99948502;2.54901958
22.00351524;2.86274505
22.00764465;2.74509811
22.01177216;2.35294127
22.01595116;2.03921580
22.02008057;2.39215684
22.02008057;2.64705873
22.02406120;3.29411769
22.02813148;2.84313726
22.03226852;2.60784316
22.03226852;2.15686274
22.03639030;1.92156863
22.04050255;2.21568632
22.04451561;2.56862736
22.04451561;2.66666675
22.04858780;2.49019599
22.05266762;1.98039210
22.05685425;1.37254906
22.06081772;1.96078432
22.06497192;2.29411769
22.06497192;2.35294127
22.06928062;2.33333325
22.07317162;1.88235295
22.07728386;1.70588231
22.07728386;2.31372547
22.08134842;2.45098042
22.08546066;2.62745094
22.08963013;2.43137264
22.08963013;2.21568632
22.09359550;1.88235295
22.09771538;1.49019611
22.10181046;2.13725495
22.10181046;2.70588231
22.10602188;2.94117641
22.11010170;3.07843137
22.11010170;2.72549009
22.11416435;2.31372547
22.11826897;2.39215684
22.12239838;2.86274505
22.12239838;3.15686274
22.12654305;3.29411769
22.13051605;3.00000000
22.13463593;2.52941179
22.13463593;2.31372547
22.13878250;2.62745094
22.14289474;2.98039222
22.14694023;3.11764717
22.14694023;3.07843137
22.15097046;2.96078420
22.15509224;2.31372547
22.15509224;2.11764717
22.15918732;2.74509811
22.16331673;3.11764717
22.16742897;3.01960778
22.16742897;2.90196085
22.17152596;2.62745094
22.17564583;2.15686274
22.17976570;2.37254906
22.17976570;2.76470590
22.18376350;3.09803915
22.18790054;2.92156863
22.19202232;2.66666675
22.19202232;2.41176462
22.19615936;2.01960778
22.20029449;2.49019599
22.20029449;3.00000000
22.20421982;2.62745094
22.20833206;2.56862736
22.21249390;2.17647052
22.21249390;1.43137252
22.21655655;0.90196079
22.22057915;0.58823532
22.22468376;0.50980395
22.22468376;0.09803922
22.22880363;0.07843138
22.23297310;0.00000000
22.23715973;0.00000000
22.23715973;0.00000000
22.24115753;0.17647059
22.24529457;0.37254903
22.24529457;0.68627453
22.24938965;1.03921568
22.25353432;1.49019611
22.25751686;1.56862748
22.25751686;2.29411769
22.26166153;3.01960778
22.26572418;3.29411769
22.26988602;3.27450991
22.26988602;2.86274505
22.27389145;2.60784316
22.27799606;2.49019599
22.28215790;3.33333325
22.28215790;3.35294127
22.28618813;3.21568632
22.29022789;3.23529410
22.29447937;2.62745094
22.29851723;2.80392146
22.30267143;3.25490189
22.30267143;3.43137264
22.30665970;3.72549009
22.31075668;3.15686274
22.31490898;2.80392146
22.31490898;2.45098042
22.31905556;2.86274505
22.32315826;3.23529410
22.32716560;3.21568632
22.32716560;3.19607854
22.33123589;3.01960778
22.33531570;2.37254906
22.33946037;2.72549009
22.34344292;3.03921580
22.34755516;2.98039222
22.34755516;3.15686274
22.35177422;2.60784316
22.35585403;2.07843137
22.36003113;2.27450991
22.36003113;2.70588231
22.36400414;2.94117641
22.36815834;2.96078420
22.37228584;2.62745094
22.37228584;2.21568632
22.37641525;2.25490189
22.38051987;2.19607854
22.38450813;2.47058821
22.38863754;2.43137264
22.39274216;2.11764717
22.39274216;1.74509799
22.39669037;1.86274505
22.40083504;2.05882359
22.40493965;2.19607854
22.40493965;2.09803915
22.40914154;1.88235295
22.41322136;1.62745094
22.41717911;1.13725495
22.41717911;1.35294116
22.42152023;1.74509799
22.42553520;1.88235295
22.42966270;1.39215684
22.43364525;0.98039216
22.43775749;0.70588237
22.43775749;0.86274511
22.44190979;1.45098042
22.44603920;1.54901958
22.45015907;1.33333337
22.45015907;0.96078432
22.45410728;0.56862748
22.45819664;0.49019608
22.46234131;1.01960790
22.46234131;1.23529410
22.46642876;1.33333337
22.47045135;1.37254906
22.47455597;0.37254903
22.47867584;0.64705884
22.48284531;1.21568632
22.48284531;1.58823526
22.48688507;1.43137252
22.49100494;1.31372547
22.49515915;1.19607842
22.49515915;0.92156863
22.49927902;1.17647064
22.50340843;1.74509799
22.50754547;2.09803915
22.50754547;1.76470590
22.51152611;1.92156863
22.51569557;1.80392158
22.51982498;2.50980401
22.52379799;3.11764717
22.52795029;3.33333325
22.52795029;3.33333325
22.53201485;3.05882359
22.53614235;2.88235283
22.54024696;3.31372547
22.54024696;3.98039222
22.54425240;4.23529434
22.54833221;4.37254906
22.55258369;4.25490189
22.55258369;3.94117641
22.55659866;3.66666675
22.56064606;3.96078420
22.56472397;4.62745094
22.56889534;4.54901981
22.57304764;4.23529434
22.57304764;3.94117641
22.57702065;3.96078420
22.58111763;4.37254906
22.58519745;4.58823538
22.58519745;4.49019623
22.58936691;4.37254906
22.59351921;4.00000000
22.59745979;3.50980401
22.59745979;3.54901958
22.60155678;4.00000000
22.60570145;4.15686274
22.60984612;4.21568632
22.60984612;3.92156863
22.61387634;3.47058821
22.61799812;3.19607854
22.61799812;3.54901958
22.62215805;4.15686274
22.62627983;4.00000000
22.63040733;3.86274505
22.63040733;3.37254906
22.63452911;3.07843137
22.63846016;2.90196085
22.64269638;3.52941179
22.64269638;3.92156863
22.64689827;3.72549009
22.65081406;3.49019599
22.65491104;3.15686274
22.65491104;2.70588231
22.65903091;2.94117641
22.66312790;3.41176462
22.66312790;3.19607854
22.66719055;3.37254906
22.67126083;3.11764717
22.67531586;2.72549009
22.67531586;2.62745094
22.67943764;3.03921580
22.68342590;3.37254906
22.68758011;3.25490189
22.68758011;3.15686274
22.69174194;2.78431368
22.69588661;2.47058821
22.70003128;2.47058821
22.70003128;2.92156863
22.70398140;3.05882359
22.70808411;3.09803915
22.70808411;2.76470590
22.71218872;2.54901958
22.71630096;2.29411769
22.72049522;2.47058821
22.72049522;2.94117641
22.72443581;3.03921580
22.72863007;3.01960778
22.73271751;2.74509811
22.73271751;2.43137264
22.73670006;2.31372547
22.74087715;2.60784316
22.74500656;3.03921580
22.74500656;3.01960778
22.74915886;2.70588231
22.75326347;2.50980401
22.75726128;2.17647052
22.76153755;2.64705873
22.76556778;2.84313726
22.76556778;2.86274505
22.76969719;2.68627453
22.77368546;2.37254906
22.77775002;1.86274505
22.77775002;2.27450991
22.78186989;2.72549009
22.78602409;2.60784316
22.79011917;2.82352948
22.79011917;2.47058821
22.79411697;1.98039210
22.79824638;1.72549021
22.80232620;2.88235283
22.80652046;2.82352948
22.81056595;2.58823538
22.81056595;2.23529410
22.81458855;1.86274505
22.81876755;2.09803915
22.82291985;2.64705873
22.82291985;2.96078420
22.82703209;2.82352948
22.83099747;2.84313726
22.83515167;2.37254906
22.83515167;1.82352936
22.83924675;2.19607854
22.84337616;2.68627453
22.84744644;2.76470590
22.85142899;2.43137264
22.85555649;2.19607854
22.85555649;1.90196073
22.85971832;2.45098042
22.86376572;2.84313726
22.86787796;2.94117641
22.86787796;2.90196085
22.87201500;2.39215684
22.87615967;1.88235295
22.88028145;2.29411769
22.88028145;2.76470590
22.88425446;3.13725495
22.88844872;2.96078420
22.89245415;2.19607854
22.89650917;2.19607854
22.90062141;2.39215684
22.90062141;2.80392146
22.90470886;2.98039222
22.90883827;2.80392146
22.91293335;2.66666675
22.91293335;2.13725495
22.91692352;1.92156863
22.92114258;2.68627453
22.92526245;2.90196085
22.92526245;2.90196085
22.92940712;2.80392146
22.93352890;2.37254906
22.93747711;2.50980401
22.94165421;2.90196085
22.94578362;2.94117641
22.94578362;3.01960778
22.94990349;2.74509811
22.95381165;2.41176462
22.95794106;2.23529410
22.95794106;2.54901958
22.96215057;3.01960778
22.96617317;2.98039222
22.97031975;3.03921580
22.97031975;2.56862736
22.97442245;2.19607854
22.97850227;2.23529410
22.98258972;3.23529410
22.98671913;3.13725495
22.99077415;2.98039222
22.99077415;2.49019599
22.99489403;1.94117641
22.99900818;2.37254906
23.00307846;2.94117641
23.00307846;3.05882359
23.00714111;3.07843137
23.01124573;2.82352948
23.01545715;2.45098042
23.01545715;2.37254906
23.01945496;2.74509811
23.02362442;3.03921580
23.02758980;2.92156863
23.03168488;2.64705873
23.03599358;2.23529410
23.03599358;2.11764717
23.03993416;2.92156863
23.04395676;3.25490189
23.04812622;3.39215684
23.04812622;2.72549009
23.05225563;2.86274505
23.05640793;2.27450991
23.06050491;2.39215684
23.06050491;2.86274505
23.06449318;2.92156863
23.06863976;2.98039222
23.07277679;2.68627453
23.07277679;2.37254906
23.07691383;2.00000000
23.08085442;2.47058821
23.08085442;2.82352948
23.08500671;3.09803915
23.08909416;2.90196085
23.09323120;2.49019599
23.09323120;2.09803915
23.09721375;2.07843137
23.10143089;2.60784316
23.10542107;3.09803915
23.10542107;2.90196085
23.10959053;2.58823538
23.11363792;2.19607854
23.11776733;2.21568632
23.11776733;2.43137264
23.12189484;2.86274505
23.12600708;3.00000000
23.12600708;2.96078420
23.13015366;2.62745094
23.13413429;2.19607854
23.13824654;1.98039210
23.13824654;2.35294127
23.14238358;2.74509811
23.14644623;2.68627453
23.15059280;2.64705873
23.15059280;2.25490189
23.15454865;1.70588231
23.15869331;1.62745094
23.16279793;2.15686274
23.16279793;2.31372547
23.16687775;2.21568632
23.17097282;2.01960778
23.17097282;1.70588231
23.17513466;1.33333337
23.17925644;1.54901958
23.18337631;2.11764717
23.18337631;2.37254906
23.18752098;2.47058821
23.19151878;2.13725495
23.19564056;1.84313726
23.19564056;1.64705884
23.19977760;2.05882359
23.20380783;2.56862736
23.20794487;2.54901958
23.20794487;2.49019599
23.21203995;2.01960778
23.21611977;1.70588231
23.21611977;2.03921580
23.22025681;2.72549009
23.22424698;3.17647052
23.22848892;2.88235283
23.22848892;2.90196085
23.23249626;2.78431368
23.23656654;2.58823538
23.24067116;2.49019599
23.24067116;3.25490189
23.24467659;3.47058821
23.24884605;3.43137264
23.25296783;3.21568632
23.25296783;2.92156863
23.25702286;2.64705873
23.26112747;3.07843137
23.26523972;3.33333325
23.26932716;3.43137264
23.27343941;3.11764717
23.27343941;2.62745094
23.27749443;2.76470590
23.28155708;3.21568632
23.28567886;3.56862736
23.28567886;3.72549009
23.28980637;3.56862736
23.29383659;2.88235283
23.29796600;2.47058821
23.29796600;2.80392146
23.30212784;3.11764717
23.30627251;3.43137264
23.31039429;3.01960778
23.31452942;2.72549009
23.31849480;2.82352948
23.31849480;3.03921580
23.32264900;3.17647052
23.32677650;2.45098042
23.33080864;2.07843137
23.33080864;1.37254906
23.33491135;0.37254903
23.33904076;0.15686275
23.34312057;0.03921569
23.34312057;0.01960784
23.34714317;0.00000000
23.35123825;0.00000000
23.35536766;0.47058824
23.35943031;0.50980395
23.36355209;1.25490201
23.36355209;1.84313726
23.36754799;2.41176462
23.37169456;2.70588231
23.37583160;2.31372547
23.37583160;2.43137264
23.38002586;3.05882359
23.38399887;3.45098042
23.38812637;3.33333325
23.38812637;3.33333325
23.39223099;2.88235283
23.39632797;2.64705873
23.40044022;3.35294127
23.40445328;3.60784316
23.40856552;3.43137264
23.40856552;3.17647052
23.41267776;2.92156863
23.41689682;2.62745094
23.42082214;2.98039222
23.42082214;3.27450991
23.42496681;3.29411769
23.42915344;3.09803915
23.43327332;2.86274505
23.43327332;2.37254906
23.43723869;2.41176462
23.44152260;2.76470590
23.44552040;3.03921580
23.44964027;2.88235283
23.45380974;2.68627453
23.45380974;2.19607854
23.45780754;2.27450991
23.46192169;2.72549009
23.46605682;2.86274505
23.46605682;2.78431368
23.47013664;2.56862736
23.47424889;2.17647052
23.47829628;1.82352936
23.47829628;2.17647052
23.48237610;2.68627453
23.48645592;2.78431368
23.49056053;2.41176462
23.49454117;1.96078432
23.49871063;1.78431368
23.49871063;2.00000000
23.50281525;2.58823538
23.50700188;2.47058821
23.51098251;2.19607854
23.51098251;1.84313726
23.51515198;1.27450979
23.51928902;1.50980389
23.52331161;1.90196073
23.52331161;2.15686274
23.52744865;2.13725495
23.53142166;1.92156863
23.53554153;1.05882359
23.53968811;1.43137252
23.54380035;1.80392158
23.54380035;1.70588231
23.54787064;1.62745094
23.55200005;1.35294116
23.55614471;0.94117647
23.55614471;0.94117647
23.56026649;1.23529410
23.56423950;1.37254906
23.56851578;1.03921568
23.56851578;1.27450979
23.57249641;0.90196079
23.57662582;0.49019608
23.58081055;0.64705884
23.58081055;1.11764705
23.58480835;1.23529410
23.58891296;1.19607842
23.58891296;0.78431374
23.59298515;0.54901963
23.59713745;0.31372550
23.60111046;0.84313726
23.60111046;1.45098042
23.60530472;1.29411769
23.60937691;1.27450979
23.61355400;1.31372547
23.61355400;0.96078432
23.61755180;1.13725495
23.62164879;1.70588231
23.62567902;2.29411769
23.62567902;2.23529410
23.62979126;2.31372547
23.63395309;2.19607854
23.63395309;1.98039210
23.63801575;2.54901958
23.64209557;3.25490189
23.64618301;3.54901958
23.64618301;3.62745094
23.65031242;3.68627453
23.65450668;3.39215684
23.65843773;3.25490189
23.65843773;3.72549009
23.66253471;4.27450991
23.66675377;4.49019623
23.67081642;4.45098019
23.67081642;4.00000000
23.67488861;3.66666675
23.67900848;3.78431368
23.67900848;4.21568632
23.68314552;4.62745094
23.68711853;4.72549009
23.69123077;4.37254906
23.69123077;3.96078420
23.69537544;3.58823538
23.69949722;3.94117641
23.70357704;4.27450991
23.70357704;4.35294104
23.70759010;4.35294104
23.71166229;3.98039222
23.71585655;3.37254906
23.71585655;3.07843137
23.71995163;3.47058821
23.72404099;4.11764717
23.72404099;3.96078420
23.72804642;3.94117641
23.73216629;3.45098042
23.73638535;2.98039222
23.73638535;3.07843137
23.74052238;3.52941179
23.74448776;3.74509811
23.74860764;3.54901958
23.74860764;3.35294127
23.75269508;2.90196085
23.75688171;2.56862736
23.76101875;2.76470590
23.76101875;3.41176462
23.76499939;3.50980401
23.76909637;3.21568632
23.77317619;2.66666675
23.77718925;2.45098042
23.78142548;2.96078420
23.78142548;3.47058821
23.78541374;3.31372547
23.78963280;3.05882359
23.79366493;2.72549009
23.79366493;2.39215684
23.79770279;2.43137264
23.80187988;2.88235283
23.80601692;3.23529410
23.80601692;3.15686274
23.81013870;3.05882359
23.81426620;2.47058821
23.81826401;2.86274505
23.82237625;3.11764717
23.82649803;3.17647052
23.82649803;3.13725495
23.83059311;2.86274505
23.83455086;2.15686274
23.83869553;2.35294127
23.83869553;2.86274505
23.84279060;3.25490189
23.84693718;3.21568632
23.85091782;3.07843137
23.85091782;2.74509811
23.85504723;2.37254906
23.85919952;2.49019599
23.86339378;2.76470590
23.86752319;3.05882359
23.87149620;2.94117641
23.87149620;2.56862736
23.87562561;2.23529410
23.87974548;2.43137264
23.88389015;2.90196085
23.88389015;3.01960778
23.88786316;3.05882359
23.89196014;2.88235283
23.89609718;2.39215684
23.89609718;2.23529410
23.90018463;2.76470590
23.90421486;2.92156863
23.90843391;2.90196085
23.91244888;2.58823538
23.91654396;2.35294127
23.91654396;2.54901958
23.92056656;2.84313726
23.92473602;3.03921580
23.92889023;3.01960778
23.92889023;2.90196085
23.93300247;2.56862736
23.93712997;2.33333325
23.94114494;2.80392146
23.94114494;3.11764717
23.94526482;3.19607854
23.94938660;2.98039222
23.95354652;2.39215684
23.95754433;2.23529410
23.96167374;2.64705873
23.96167374;3.03921580
23.96576881;3.21568632
23.96986580;2.86274505
23.97412491;2.49019599
23.97412491;2.09803915
23.97798347;2.29411769
23.98211288;2.66666675
23.98617554;3.25490189
23.98617554;3.17647052
23.99028778;2.84313726
23.99441719;2.52941179
23.99845505;2.84313726
24.00270653;3.07843137
24.00676155;3.21568632
24.00676155;3.01960778
24.01074409;2.86274505
24.01485634;2.41176462
24.01896858;2.43137264
24.01896858;2.94117641
24.02304840;3.29411769
24.02719307;3.35294127
24.03118324;3.07843137
24.03118324;2.78431368
24.03528786;2.23529410
24.03942490;2.39215684
24.04352760;3.19607854
24.04757500;2.96078420
24.05173683;2.78431368
24.05173683;2.49019599
24.05588913;2.07843137
24.06001091;2.62745094
24.06414795;3.09803915
24.06414795;3.19607854
24.06811333;3.07843137
24.07224083;2.78431368
24.07637024;2.19607854
24.07637024;2.31372547
24.08054733;2.72549009
24.08455467;3.29411769
24.08865738;2.96078420
24.08865738;2.90196085
24.09272957;2.47058821
24.09688187;2.21568632
24.09688187;2.39215684
24.10085487;2.92156863
24.10497665;3.05882359
24.10909653;2.76470590
24.10909653;2.66666675
