0.00746822;3.23529
0.0136194;3.23529
0.0197706;2.76471
0.0259218;3.31373
0.032073;3.29412
0.0382242;2.72549
0.0443754;3.05882
0.0505266;3.23529
0.0566778;2.96078
0.062829;2.80392
0.0689802;3.47059
0.0751314;3.15686
0.0812826;2.23529
0.0874338;3.29412
0.093585;3.43137
0.0997362;2.60784
0.105887;2.82353
0.112039;3.29412
0.118237;2.78431
0.124436;2.56863
0.130635;3.33333
0.136834;2.96078
0.143033;2.17647
0.149232;3.35294
0.155431;2.88235
0.16163;2.43137
0.167829;2.56863
0.174027;3
0.180226;2.54902
0.186425;2.37255
0.192624;3.07843
0.198823;3.07843
0.205022;2.15686
0.211221;2.96078
0.21742;2.96078
0.223619;2.2549
0.229817;2.58824
0.236016;2.60784
0.242215;1.98039
0.248414;2.58824
0.254613;2.33333
0.260812;1.76471
0.267011;1.70588
0.27321;2.09804
0.279408;1.62745
0.285607;2.41176
0.291806;2.70588
0.298005;2.4902
0.304204;2.45098
0.310403;3.29412
0.316602;3.29412
0.322801;3.05882
0.329;3.41176
0.335198;2.86275
0.341397;2.64706
0.347596;3.19608
0.353795;3.19608
0.359994;2.47059
0.366193;3.33333
0.372392;3.09804
0.378591;2.33333
0.384789;3.41176
0.390988;3.52941
0.397187;2.39216
0.403386;1.92157
0.409585;0.156863
0.415784;0.117647
0.421983;0.196078
0.428194;0.254902
0.434418;0.784314
0.440641;2.4902
0.446865;3.19608
0.453089;2.7451
0.459312;2.86275
0.465536;3.2549
0.47176;2.60784
0.477983;2.5098
0.484207;3.21569
0.490431;2.56863
0.496655;2.58824
0.502878;3.05882
0.509102;2.45098
0.515326;2.13725
0.521549;3.05882
0.527773;2.76471
0.533997;2.01961
0.54022;2.68627
0.546444;2.68627
0.552668;1.96078
0.558891;2.23529
0.565115;2.54902
0.571339;2.21569
0.577562;1.82353
0.583786;2.4902
0.59001;2.19608
0.596233;1.27451
0.602457;2.03922
0.608681;1.98039
0.614904;1.21569
0.621128;0.960784
0.627352;1.47059
0.633575;1.2549
0.639799;0.686275
0.646023;1.21569
0.652246;0.901961
0.65847;0.156863
0.664694;1.17647
0.670918;1.11765
0.677141;0.686275
0.683365;1.09804
0.689589;1.80392
0.695812;1.72549
0.702036;1.96078
0.70826;2.96078
0.714483;3.05882
0.720707;2.76471
0.726931;3.92157
0.733154;4.21569
0.739378;3.66667
0.745533;4.62745
0.751688;4.35294
0.757843;3.60784
0.763998;4.19608
0.770153;4.45098
0.776308;3.94118
0.782463;4.35294
0.788618;4.05882
0.794773;2.90196
0.800928;3.62745
0.807083;3.90196
0.813238;3.17647
0.819393;2.92157
0.825548;3.62745
0.831703;3.13725
0.837858;3.11765
0.844013;3.29412
0.850168;3
0.856323;2.54902
0.862478;3.47059
0.868633;2.76471
0.874788;2.54902
0.880943;3.13725
0.887098;2.92157
0.893253;2.5098
0.899408;3.15686
0.905563;2.96078
0.911718;2.33333
0.917873;3.2549
0.924028;3.17647
0.930183;2.17647
0.936338;2.90196
0.942493;3.05882
0.948648;2.41176
0.954803;3.23529
0.960958;3.31373
0.967113;2.45098
0.973269;2.98039
0.979424;3.17647
0.985579;2.84314
0.991734;2.68627
0.997889;3.09804
1.00404;2.4902
1.0102;2.66667
1.01635;3.05882
1.02251;2.66667
1.02866;2.45098
1.03482;3.5098
1.04097;3.21569
1.04713;2.15686
1.05328;2.94118
1.0595;2.90196
1.06571;1.98039
1.07192;2.21569
1.07813;2.76471
1.08434;2.11765
1.09056;1.47059
1.09677;2.7451
1.10298;2.47059
1.10919;1.72549
1.11541;2.58824
1.12162;2.7451
1.12783;2.39216
1.13404;2.66667
1.14025;3.27451
1.14647;3.21569
1.15268;2.84314
1.15889;3.64706
1.1651;3.29412
1.17132;2.7451
1.17753;3.39216
1.18374;3.52941
1.18995;2.72549
1.19617;3.05882
1.20238;3.52941
1.20859;3
1.2148;2.66667
1.22101;3.33333
1.22723;3.33333
1.23344;2.7451
1.23965;2.78431
1.24586;1.47059
1.25208;0.0980392
1.25829;0.176471
1.2645;0.0588235
1.27071;0.176471
1.27692;1.92157
1.28314;3.2549
1.28935;2.72549
1.29556;3.41176
1.30177;3.01961
1.30799;2.2549
1.3142;2.7451
1.32041;3.01961
1.32662;2.39216
1.33283;2.90196
1.33905;2.90196
1.34526;2.39216
1.35147;2.37255
1.35768;2.84314
1.3639;2.4902
1.3701;2.35294
1.37628;2.45098
1.38247;2.07843
1.38866;1.82353
1.39485;2.52941
1.40103;2.15686
1.40722;1.52941
1.41341;2.37255
1.41959;1.82353
1.42578;1.43137
1.43197;2.07843
1.43816;1.78431
1.44434;0.862745
1.45053;1.45098
1.45672;1.23529
1.46291;0.607843
1.46909;1.23529
1.47528;1.05882
1.48147;0.588235
1.48766;0.980392
1.49384;1.05882
1.50003;0.392157
1.50622;1.27451
1.51241;1.72549
1.51859;1.4902
1.52478;1.84314
1.53097;2.68627
1.53716;2.96078
1.54334;2.64706
1.54953;3.7451
1.55572;3.7451
1.56191;3.29412
1.56809;4.19608
1.57428;4.41176
1.58047;4.05882
1.58666;3.96078
1.59284;4.15686
1.59903;4.07843
1.60522;3.35294
1.61141;4.17647
1.61759;3.72549
1.62378;2.84314
1.62997;3.58824
1.63616;3.84314
1.64234;3.2549
1.64853;3.35294
1.65472;3.29412
1.6609;3.03922
1.66709;2.5098
1.67328;3.31373
1.67947;3.05882
1.68564;2.27451
1.69182;3.13725
1.698;2.82353
1.70417;2.2549
1.71035;3.37255
1.71652;3.11765
1.7227;2.23529
1.72888;2.76471
1.73505;2.80392
1.74123;2.13725
1.7474;2.84314
1.75358;2.90196
1.75976;2.09804
1.76593;2.54902
1.77211;2.98039
1.77828;2.47059
1.78446;2.5098
1.79064;2.82353
1.79681;2.45098
1.80299;2.43137
1.80916;2.98039
1.81534;2.7451
1.82152;2.15686
1.82769;2.98039
1.83387;2.62745
1.84004;2.5098
1.84622;3.17647
1.8524;2.90196
1.85857;2.15686
1.86475;3.03922
1.87092;2.60784
1.8771;2.45098
1.88328;3.43137
1.88945;3.21569
1.89563;2.4902
1.9018;3.37255
1.90798;3.2549
1.91416;2.82353
1.92033;3.35294
1.92651;3.15686
1.93268;2.2549
1.93886;2.80392
1.94503;3.21569
1.95121;2.64706
1.95739;2.96078
1.96356;3.03922
1.96974;2.09804
1.97591;2.2549
1.98209;2.43137
1.98827;1.84314
1.99448;1.70588
2.00073;2.56863
2.00698;2.45098
2.01323;1.88235
2.01948;2.52941
2.02573;2.64706
2.03198;2.2549
2.03823;2.80392
2.04448;3.39216
2.05073;2.90196
2.05698;2.66667
2.06323;3.35294
2.06948;3.05882
2.07574;2.21569
2.08199;3.11765
2.08824;3.21569
2.09449;2.58824
2.10074;2.82353
2.10699;3.17647
2.11324;2.92157
2.11949;2.60784
2.12574;3.70588
2.13199;3.19608
2.13824;1.76471
2.14449;1.52941
2.15074;0.196078
2.15699;0.254902
2.16324;0.0784314
2.16949;0.156863
2.17574;0.823529
2.18199;1.98039
2.18824;3.07843
2.19449;3.27451
2.20074;2.70588
2.20699;3.27451
2.21324;3.01961
2.21949;2.41176
2.22574;3.33333
2.23199;3.13725
2.23825;2.33333
2.2445;2.88235
2.25075;2.70588
2.257;2.03922
2.26325;2.7451
2.2695;2.7451
2.27575;2.05882
2.282;2.37255
2.28825;2.41176
2.2945;1.7451
2.30075;2.33333
2.307;2.43137
2.31317;1.78431
2.31934;1.70588
2.3255;2.07843
2.33167;1.35294
2.33784;1.27451
2.34401;1.78431
2.35018;1.27451
2.35635;0.980392
2.36251;1.27451
2.36868;1.07843
2.37485;0.666667
2.38102;1.27451
2.38719;0.627451
2.39336;0.431373
2.39952;1.15686
2.40569;1.03922
2.41186;0.372549
2.41803;1.78431
2.4242;1.80392
2.43037;1.4902
2.43653;2.45098
2.4427;2.78431
2.44887;2.45098
2.45504;3.09804
2.46121;3.52941
2.46738;2.98039
2.47355;3.82353
2.47971;3.98039
2.48588;3.72549
2.49205;3.41176
2.49822;3.80392
2.50439;3.21569
2.51056;2.66667
2.51672;3.7451
2.52289;3.29412
2.52906;2.47059
2.53523;3.45098
2.5414;3.58824
2.54757;2.66667
2.55373;3.09804
2.5599;3.2549
2.56607;2.94118
2.57224;2.52941
2.57841;3.2549
2.58458;3
2.59074;2.19608
2.59691;2.94118
2.60308;3.13725
2.60925;2.5098
2.61542;2.84314
2.62158;3.23529
2.62775;2.82353
2.63392;2.29412
2.64008;3.19608
2.64625;2.78431
2.65242;2.13725
2.65858;2.92157
2.66475;2.86275
2.67092;2.35294
2.67708;2.72549
2.68325;3.17647
2.68942;2.66667
2.69558;2.4902
2.70175;2.88235
2.70792;2.54902
2.71408;2.56863
2.72025;3
2.72641;2.72549
2.73258;2.17647
2.73875;3.03922
2.74491;2.60784
2.75108;2.33333
2.75725;2.94118
2.76341;2.72549
2.76958;1.98039
2.77575;2.86275
2.78191;2.92157
2.78808;2.2549
2.79425;2.88235
2.80041;2.88235
2.80658;2.21569
2.81275;2.84314
2.81891;3.05882
2.82508;2.31373
2.83124;2.92157
2.83741;2.94118
2.84358;2.03922
2.84974;2.5098
2.85591;2.90196
2.86208;2.4902
2.86824;2.31373
2.87441;3
2.88058;2.41176
2.88674;2.33333
2.89291;2.86275
2.89908;2.4902
2.90524;2.29412
2.91141;3.19608
2.91757;2.60784
2.92374;2.33333
2.92991;3.07843
2.93615;2.68627
2.9424;1.7451
2.94864;2.45098
2.95489;2.33333
2.96113;1.72549
2.96738;2.47059
2.97362;2.43137
2.97987;1.58824
2.98611;2.35294
2.99235;2.82353
2.9986;2.39216
3.00484;2.62745
3.01109;3.37255
3.01733;3.11765
3.02358;2.60784
3.02982;3.31373
3.03607;3.07843
3.04231;2.72549
3.04856;3.17647
3.0548;3.37255
3.06105;2.92157
3.06729;2.94118
3.07353;3.37255
3.07978;2.96078
3.08602;2.4902
3.09227;3.60784
3.09851;3.58824
3.10476;2.23529
3.111;2.13725
3.11725;0.54902
3.12349;0.0392157
3.12974;0.294118
3.13598;0.196078
3.14223;0.392157
3.14847;1.39216
3.15472;3.33333
3.16096;3.27451
3.1672;2.90196
3.17345;3.60784
3.17969;3.56863
3.18594;2.82353
3.19218;3.7451
3.19843;3.23529
3.20467;2.82353
3.21092;3.54902
3.21716;3.27451
3.22341;2.54902
3.22965;3.27451
3.2359;3.2549
3.24214;2.37255
3.24837;2.78431
3.25457;2.80392
3.26077;2
3.26698;2.86275
3.27318;2.72549
3.27939;2.01961
3.28559;2.45098
3.2918;2.2549
3.298;1.64706
3.30421;1.78431
3.31041;1.92157
3.31662;1.58824
3.32282;1.23529
3.32903;1.66667
3.33523;1.03922
3.34143;0.980392
3.34764;1.35294
3.35384;1.15686
3.36005;0.686275
3.36625;1.52941
3.37246;1.05882
3.37866;1.09804
3.38487;2
3.39107;2.07843
3.39728;1.84314
3.40348;2.88235
3.40969;3.45098
3.41589;3.19608
3.42209;4.31373
3.4283;4.37255
3.4345;3.98039
3.44071;4.41176
3.44691;4.70588
3.45312;4.11765
3.45932;4.70588
3.46553;4.27451
3.47173;3.82353
3.47794;4.13725
3.48414;4.37255
3.49035;4.01961
3.49655;3.60784
3.50275;4.21569
3.50896;3.88235
3.51516;3.05882
3.52137;3.80392
3.52757;3.96078
3.53378;3.13725
3.53998;3.45098
3.54619;3.70588
3.55239;2.90196
3.5586;2.72549
3.5648;3.54902
3.57099;3.09804
3.57719;2.41176
3.58338;3.21569
3.58958;3.13725
3.59577;2.66667
3.60197;2.76471
3.60816;3.07843
3.61436;2.45098
3.62055;2.35294
3.62675;2.92157
3.63294;2.66667
3.63914;2.37255
3.64533;2.84314
3.65153;2.92157
3.65772;2.21569
3.66392;3
3.67011;2.72549
3.67631;1.90196
3.6825;2.88235
3.6887;3
3.69489;2.41176
3.70109;2.94118
3.70728;2.82353
3.71348;2.13725
3.71968;2.52941
3.72587;2.7451
3.73207;2.15686
3.73826;2.56863
3.74446;2.66667
3.75065;2.13725
3.75685;2.52941
3.76304;2.96078
3.76924;2.43137
3.77543;2.07843
3.78163;2.90196
3.78782;2.52941
3.79402;2.2549
3.80021;2.5098
3.80641;2.37255
3.8126;2.09804
3.8188;2.88235
3.82499;2.68627
3.83119;2.19608
3.83738;2.76471
3.84358;2.7451
3.84977;1.90196
3.85597;2.90196
3.86216;2.92157
3.86836;2.41176
3.87455;2.88235
3.88081;2.76471
3.88707;2.17647
3.89333;2.96078
3.89959;3.13725
3.90585;2.27451
3.91211;2.37255
3.91837;2.76471
3.92463;2.43137
3.93089;2.7451
3.93715;2.90196
3.94341;2.27451
3.94967;1.96078
3.95593;2.5098
3.96219;2.11765
3.96845;1.31373
3.97471;1.98039
3.98097;2.33333
3.98723;1.54902
3.99349;1.94118
3.99975;2.41176
4.00601;1.94118
4.01227;2.13725
4.01853;2.80392
4.02479;2.82353
4.03105;2.37255
4.03731;3.29412
4.04357;3.03922
4.04983;2.66667
4.05609;3.17647
4.06235;3.43137
4.06861;2.94118
4.07487;2.7451
4.08113;3.17647
4.08739;3.2549
4.09365;2.37255
4.09991;3.11765
4.10617;3.27451
4.11243;2.62745
4.11869;3.21569
4.12495;3.35294
4.13121;2.76471
4.13747;1.17647
4.14373;0.54902
4.14999;0.352941
4.15625;0
4.16251;0.156863
4.16877;0.941176
4.17503;1.72549
4.18129;3.17647
4.18755;3.07843
4.19381;2.78431
4.19995;3.58824
4.20609;3.4902
4.21223;2.70588
4.21837;3.80392
4.22452;3.4902
4.23066;2.92157
4.2368;3.29412
4.24294;3.39216
4.24908;2.64706
4.25522;3.39216
4.26137;3.21569
4.26751;2.39216
4.27365;2.62745
4.27979;2.88235
4.28593;2.2549
4.29207;2.47059
4.29822;2.58824
4.30436;2.07843
4.3105;1.88235
4.31664;2.39216
4.32278;1.96078
4.32892;1.13725
4.33507;2.01961
4.34121;1.35294
4.34735;0.941176
4.35349;1.56863
4.35963;1
4.36577;0.509804
4.37192;1.27451
4.37806;0.862745
4.3842;0.352941
4.39034;1.35294
4.39648;1.21569
4.40262;0.568627
4.40877;1.45098
4.41491;2.03922
4.42105;1.98039
4.42719;2.68627
4.43333;3.05882
4.43947;2.66667
4.44562;3.23529
4.45176;3.88235
4.4579;3.56863
4.46404;3.47059
4.47018;4.23529
4.47632;4.15686
4.48247;3.19608
4.48861;4.31373
4.49475;4.35294
4.50089;3.56863
4.50708;3.66667
4.51332;4.11765
4.51955;3.54902
4.52579;3.35294
4.53203;3.66667
4.53827;3.4902
4.5445;2.90196
4.55074;3.60784
4.55698;3.47059
4.56321;3.23529
4.56945;3.27451
4.57569;3.33333
4.58192;2.76471
4.58816;2.88235
4.5944;3.37255
4.60064;2.98039
4.60687;2.5098
4.61311;3.19608
4.61935;3.03922
4.62558;2.58824
4.63182;3.13725
4.63806;3.15686
4.64429;2.62745
4.65053;2.23529
4.65677;3.15686
4.66301;2.43137
4.66924;2.70588
4.67548;3.21569
4.68172;2.78431
4.68795;2.52941
4.69419;3.33333
4.70043;3
4.70667;2.37255
4.7129;2.96078
4.71914;2.88235
4.72538;2.21569
4.73161;3.19608
4.73785;2.98039
4.74409;2.17647
4.75032;3.21569
4.75656;2.92157
4.7628;2.19608
4.76904;2.70588
4.77527;2.86275
4.78151;2.35294
4.78775;2.60784
4.79398;2.98039
4.80022;2.13725
4.80646;2.82353
4.81269;2.82353
4.81893;2.4902
4.82513;2.29412
4.83134;3.01961
4.83754;2.13725
4.84374;2.54902
4.84995;3
4.85615;2.47059
4.86235;2.33333
4.86855;2.94118
4.87476;2.76471
4.88096;2.2549
4.88716;2.90196
4.89336;2.41176
4.89957;1.92157
4.90577;2.86275
4.91197;2.98039
4.91817;2.15686
4.92438;3.07843
4.93058;2.5098
4.93678;1.72549
4.94299;2.7451
4.94919;2.66667
4.95539;2.15686
4.96159;2.58824
4.9678;2.82353
4.974;2.4902
4.9802;2.07843
4.9864;2.88235
4.99261;2.64706
4.99881;1.7451
5.00501;2.90196
5.01122;2.82353
5.01742;2.07843
5.02362;2.5098
5.02982;2.64706
5.03603;2.2549
5.04223;2.27451
5.04843;2.43137
5.05463;2.37255
5.06084;1.4902
5.06704;2.19608
5.07324;2.13725
5.07944;1.5098
5.08565;2.01961
5.09185;2.58824
5.09805;1.68627
5.10426;2.05882
5.11046;2.86275
5.11666;2.66667
5.12286;2.88235
5.12907;3.11765
5.13526;2.96078
5.14144;2.5098
5.14763;3.47059
5.15381;3.17647
5.15999;2.90196
5.16618;3.37255
5.17236;3.17647
5.17854;2.60784
5.18473;3.29412
5.19091;3.23529
5.1971;2.45098
5.20328;3.70588
5.20946;3.31373
5.21565;2
5.22183;1.4902
5.22801;0.392157
5.2342;0
5.24038;0.0784314
5.24656;1.07843
5.25275;1.88235
5.25893;3.45098
5.26512;3.88235
5.2713;3.54902
5.27748;3.41176
5.28367;3.88235
5.28985;3.01961
5.29603;3.45098
5.30222;3.72549
5.3084;3.37255
5.31458;3.21569
5.32077;3.70588
5.32695;3.37255
5.33314;2.76471
5.33932;3.33333
5.3455;3
5.35169;2.35294
5.35787;3.17647
5.36405;2.88235
5.37024;2.13725
5.37642;2.96078
5.3826;2.68627
5.38879;1.76471
5.39497;2.4902
5.40116;2.33333
5.40734;1.68627
5.41352;1.76471
5.41971;2
5.42589;1.52941
5.43207;1.09804
5.43826;1.66667
5.44444;1.41176
5.45065;0.470588
5.45687;1.23529
5.46308;1.19608
5.4693;0.254902
5.47551;1.11765
5.48173;1.27451
5.48794;1
5.49415;0.843137
5.50037;1.7451
5.50658;1.64706
5.5128;1.58824
5.51901;2.96078
5.52522;3.09804
5.53144;2.86275
5.53765;3.54902
5.54387;4.19608
5.55008;3.70588
5.5563;3.64706
5.56251;4.68627
5.56872;4.47059
5.57494;3.72549
5.58115;4.7451
5.58737;4.31373
5.59358;3.76471
5.59979;3.98039
5.60601;4.05882
5.61222;3.70588
5.61844;3.96078
5.62465;4.13725
5.63087;3.45098
5.63708;3.43137
5.64329;3.84314
5.64951;3.35294
5.65572;2.56863
5.66194;3.54902
5.66815;3.15686
5.67436;3.11765
5.68058;3.60784
5.68679;3.11765
5.69301;2.56863
5.69922;3.39216
5.70543;3.03922
5.71165;2.66667
5.71786;3.2549
5.72408;2.82353
5.73029;2.31373
5.73651;3.05882
5.74272;3.19608
5.74893;2.23529
5.75515;2.96078
5.76135;3.01961
5.76754;2.39216
5.77373;2.76471
5.77992;3.03922
5.78612;2.45098
5.79231;3.03922
5.7985;3.03922
5.80469;2.27451
5.81088;2.72549
5.81707;2.90196
5.82326;2.56863
5.82945;2.37255
5.83565;3
5.84184;2.45098
5.84803;2.54902
5.85422;3.15686
5.86041;2.68627
5.8666;2.23529
5.87279;3.19608
5.87898;2.76471
5.88518;2.11765
5.89137;3.23529
5.89756;3.03922
5.90375;2.37255
5.90994;3.17647
5.91613;3.37255
5.92232;2.98039
5.92851;2.86275
5.93471;3.17647
5.9409;2.80392
5.94709;2.47059
5.95328;3.23529
5.95947;2.94118
5.96566;2.29412
5.97185;3.19608
5.97804;3.09804
5.98424;2.07843
5.99043;2.90196
5.99662;3.13725
6.00281;2.64706
6.009;2.41176
6.01519;3.09804
6.02138;2.88235
6.02757;2.17647
6.03377;2.96078
6.03996;2.86275
6.04615;2.2549
6.05234;2.58824
6.05853;2.88235
6.06472;2.43137
6.07091;2.29412
6.07708;2.72549
6.08323;2.5098
6.08937;1.4902
6.09552;2.39216
6.10166;2.23529
6.10781;1.52941
6.11395;2.07843
6.1201;2.27451
6.12625;1.64706
6.13239;2.37255
6.13854;2.62745
6.14468;1.94118
6.15083;2.17647
6.15697;2.86275
6.16312;2.2549
6.16926;2.68627
6.17541;3.17647
6.18155;2.64706
6.1877;2.60784
6.19385;2.86275
6.19999;2.88235
6.20614;2.7451
6.21228;3.17647
6.21843;2.78431
6.22457;2.47059
6.23072;3.21569
6.23686;2.92157
6.24301;2.03922
6.24916;3.23529
6.2553;2.47059
6.26145;0.784314
6.26759;0.803922
6.27374;0
6.27988;0.137255
6.28603;0.45098
6.29217;2.19608
6.29832;2.72549
6.30446;3.70588
6.31061;3.4902
6.31676;3.15686
6.3229;3.09804
6.32905;3.45098
6.33519;2.60784
6.34134;3.19608
6.34748;3.2549
6.35363;2.82353
6.35977;2.68627
6.36592;3.29412
6.37206;3
6.37821;3.17647
6.38436;3.11765
6.39055;2.64706
6.3968;2.17647
6.40304;2.72549
6.40928;2.68627
6.41553;1.78431
6.42177;2.35294
6.42802;2.68627
6.43426;1.7451
6.44051;1.84314
6.44675;2.21569
6.453;1.56863
6.45924;1.19608
6.46549;2.27451
6.47173;1.43137
6.47798;0.568627
6.48422;1.45098
6.49047;1.37255
6.49671;0.568627
6.50295;0.803922
6.5092;0.745098
6.51544;0.568627
6.52169;0.392157
6.52793;1.23529
6.53418;1.29412
6.54042;1
6.54667;1.92157
6.55291;2.19608
6.55916;1.82353
6.5654;2.58824
6.57165;3.41176
6.57789;2.94118
6.58414;3.94118
6.59038;4.2549
6.59662;3.78431
6.60287;4.15686
6.60911;4.60784
6.61536;4.41176
6.6216;4.2549
6.62785;4.64706
6.63409;4.01961
6.64034;3.90196
6.64658;4.52941
6.65283;4.11765
6.65907;3.31373
6.66532;4.21569
6.67156;3.66667
6.6778;3.13725
6.68405;3.96078
6.69029;3.62745
6.69654;2.90196
6.70278;3.27451
6.70899;3.21569
6.7152;2.58824
6.7214;3.35294
6.72761;3.35294
6.73382;2.66667
6.74002;3.07843
6.74623;3.27451
6.75244;2.31373
6.75864;3.21569
6.76485;2.86275
6.77106;2.56863
6.77726;2.84314
6.78347;3.07843
6.78967;2.56863
6.79588;2.78431
6.80209;3.03922
6.80829;2.66667
6.8145;2.45098
6.82071;3.05882
6.82691;2.84314
6.83312;2.21569
6.83933;3.07843
6.84553;2.4902
6.85174;2.2549
6.85795;3.11765
6.86415;2.90196
6.87036;2.29412
6.87657;2.82353
6.88277;2.86275
6.88898;2.2549
6.89519;2.52941
6.90139;3.01961
6.9076;2.56863
6.91381;2.29412
6.92001;3.01961
6.92622;2.62745
6.93242;2.27451
6.93863;2.72549
6.94484;2.84314
6.95104;2.07843
6.95725;2.35294
6.96346;2.72549
6.96966;2.45098
6.97587;2.2549
6.98208;2.80392
6.98828;2.76471
6.99449;2.03922
7.0007;2.88235
7.0069;2.78431
7.01311;2.21569
7.01931;2.54902
7.02549;2.90196
7.03168;2.45098
7.03787;2.29412
7.04406;2.92157
7.05024;2.47059
7.05643;2.01961
7.06262;2.76471
7.06881;2.78431
7.07499;2.11765
7.08118;2.90196
7.08737;2.92157
7.09356;2.13725
7.09974;2.66667
7.10593;2.72549
7.11212;1.56863
7.11831;2
7.12449;2.21569
7.13068;1.4902
7.13687;2.39216
7.14305;2.54902
7.14924;2.07843
7.15543;2
7.16162;2.92157
7.1678;2.05882
7.17399;2.03922
7.18018;2.96078
7.18637;2.90196
7.19255;2.37255
7.19874;3.47059
7.20493;3.23529
7.21112;2.98039
7.2173;3.41176
7.22349;3.05882
7.22968;2.62745
7.23587;3.2549
7.24205;3.09804
7.24824;2.43137
7.25443;3.15686
7.26062;3.19608
7.2668;2.33333
7.27299;3.09804
7.27918;3.15686
7.28537;1.82353
7.29155;1.31373
7.29774;0.0588235
7.30393;0.0784314
7.31012;0.117647
7.3163;0.745098
7.32249;1.41176
7.32868;2.35294
7.33489;3.43137
7.34111;2.78431
7.34732;2.98039
7.35353;3.39216
7.35975;2.78431
7.36596;2.58824
7.37218;3.47059
7.37839;3.21569
7.38461;2.35294
7.39082;3.01961
7.39703;2.92157
7.40325;2.39216
7.40946;2.62745
7.41568;2.86275
7.42189;2.41176
7.4281;1.96078
7.43432;2.7451
7.44053;2.37255
7.44675;1.54902
7.45296;2.2549
7.45918;2.39216
7.46539;1.47059
7.4716;1.7451
7.47782;1.98039
7.48403;1.58824
7.49025;1.05882
7.49646;1.82353
7.50267;1.27451
7.50889;0.666667
7.5151;1.33333
7.52132;1.21569
7.52753;0.490196
7.53374;0.764706
7.53996;1.09804
7.54617;0.54902
7.55239;0.705882
7.5586;1.23529
7.56482;0.901961
7.57103;0.392157
7.57724;1.68627
7.58346;1.60784
7.58967;1.72549
7.59589;3.13725
7.6021;3.17647
7.60831;2.52941
7.61453;3.62745
7.62074;4.07843
7.62696;3.52941
7.63317;4.62745
7.63939;4.54902
7.6456;3.5098
7.65176;4.15686
7.65792;4.45098
7.66408;3.92157
7.67024;4.17647
7.6764;4.09804
7.68256;3.54902
7.68872;3.80392
7.69489;4.13725
7.70105;3.52941
7.70721;3.01961
7.71337;3.68627
7.71953;3.15686
7.72569;2.90196
7.73185;3.64706
7.73801;3.29412
7.74417;2.54902
7.75033;3.23529
7.75649;2.86275
7.76265;2.35294
7.76881;3.23529
7.77497;2.86275
7.78114;2.29412
7.7873;3
7.79346;2.82353
7.79962;2.17647
7.80578;2.84314
7.81194;2.72549
7.8181;2.29412
7.82426;2.64706
7.83042;2.88235
7.83658;2.4902
7.84274;2.60784
7.8489;2.86275
7.85506;2.29412
7.86123;2.47059
7.86739;2.86275
7.87355;2.35294
7.87971;2.05882
7.88587;2.92157
7.89203;2.62745
7.89819;1.86275
7.90435;3.01961
7.91051;2.84314
7.91667;2.05882
7.92283;2.5098
7.92899;2.96078
7.93515;2.35294
7.94131;2
7.94748;3.09804
7.95364;2.54902
7.95982;1.82353
7.96602;2.7451
7.97222;2.62745
7.97843;1.84314
7.98463;2.41176
7.99083;2.66667
7.99703;2.31373
8.00324;2.03922
8.00944;2.58824
8.01564;2.39216
8.02184;1.88235
8.02805;2.64706
8.03425;2.45098
8.04045;1.98039
8.04666;2.86275
8.05286;2.76471
8.05906;2.07843
8.06526;2.60784
8.07147;3.05882
8.07767;2.11765
8.08387;2.98039
8.09007;3.01961
8.09628;2.29412
8.10248;2.70588
8.10868;3.13725
8.11489;2.68627
8.12109;2.76471
8.12729;2.92157
8.13349;2.43137
8.1397;2.56863
8.1459;2.94118
8.1521;2.82353
8.1583;2.13725
8.16451;2.58824
8.17071;2.33333
8.17691;2.03922
8.18312;2.72549
8.18932;2.17647
8.19552;1.4902
8.20172;2.43137
8.20793;1.64706
8.21413;1.43137
8.22033;2.47059
8.22653;2.29412
8.23274;1.47059
8.23894;2.27451
8.24514;2.29412
8.25134;1.80392
8.25755;2.96078
8.26375;2.98039
8.26995;2.43137
8.27617;3.11765
8.28241;3.41176
8.28865;2.94118
8.29488;3.37255
8.30112;3.5098
8.30736;2.82353
8.31359;3.15686
8.31983;3.39216
8.32607;2.94118
8.33231;2.58824
8.33854;3.23529
8.34478;3.19608
8.35102;2.58824
8.35725;2.86275
8.36349;1.98039
8.36973;0.392157
8.37597;0.117647
8.3822;0.0392157
8.38844;0.0392157
8.39468;0.509804
8.40091;2.39216
8.40715;2.92157
8.41339;2.64706
8.41962;3.52941
8.42586;3.58824
8.4321;2.66667
8.43834;3.37255
8.44457;3.56863
8.45081;3.35294
8.45705;2.86275
8.46328;3.62745
8.46952;3.03922
8.47576;2.35294
8.48199;3.15686
8.48823;3.19608
8.49447;2.4902
8.50071;2.43137
8.50694;2.90196
8.51318;2.45098
8.51942;2.11765
8.52565;2.66667
8.53189;2.31373
8.53813;1.58824
8.54436;2.45098
8.5506;2.17647
8.55684;1.56863
8.56308;1.80392
8.56931;1.80392
8.57555;1.62745
8.58179;1.23529
8.58802;1.54902
8.59418;1.13725
8.60034;1.03922
8.60649;1.52941
8.61265;1.05882
8.61881;0.490196
8.62497;1.33333
8.63112;0.843137
8.63728;0.54902
8.64344;1.45098
8.64959;1.43137
8.65575;1.03922
8.66191;2.17647
8.66806;2.37255
8.67422;2.19608
8.68038;3.29412
8.68653;3.60784
8.69269;2.92157
8.69885;3.43137
8.70501;3.90196
8.71116;3.54902
8.71732;4.21569
8.72348;4.05882
8.72963;3.70588
8.73579;4.01961
8.74195;4.17647
8.7481;3.41176
8.75426;3.41176
8.76042;3.76471
8.76657;3.19608
8.77273;3.13725
8.77889;3.7451
8.78505;3.45098
8.7912;2.96078
8.79736;3.62745
8.80352;2.94118
8.80967;2.88235
8.81583;3.45098
8.82199;3.03922
8.82814;2.47059
8.8343;3.27451
8.84046;3.19608
8.84661;2.33333
8.85277;3.09804
8.85893;3.31373
8.86509;2.96078
8.87124;2.60784
8.8774;3.31373
8.88356;2.90196
8.88971;2.31373
8.89587;3.27451
8.90203;3.09804
8.9082;1.94118
8.91437;3.01961
8.92054;3.17647
8.92672;2.52941
8.93289;2.64706
8.93906;3.13725
8.94523;2.84314
8.9514;2.09804
8.95758;3.05882
8.96375;2.96078
8.96992;2.09804
8.97609;2.72549
8.98227;2.86275
8.98844;2.4902
8.99461;2.37255
9.00078;3.11765
9.00695;2.68627
9.01313;1.86275
9.0193;3.13725
9.02547;2.84314
9.03164;2.4902
9.03782;2.64706
9.04399;2.37255
9.05016;1.7451
9.05633;2.66667
9.0625;2.86275
9.06868;2.47059
9.07485;2.45098
9.08102;2.64706
9.08719;2.07843
9.09336;2.43137
9.09954;2.76471
9.10571;2.15686
9.11188;2.41176
9.11805;2.92157
9.12423;2.62745
9.1304;2.60784
9.13657;2.88235
9.14274;2.5098
9.14891;2.15686
9.15509;2.86275
9.16126;2.58824
9.16743;2.19608
9.1736;2.92157
9.17978;2.56863
9.18595;2.17647
9.19212;2.88235
9.19829;2.70588
9.20446;1.84314
9.21064;2.72549
9.21683;2.86275
9.22304;1.96078
9.22925;2.7451
9.23546;2.72549
9.24167;2.11765
9.24788;2.54902
9.25409;2.7451
9.2603;2.03922
9.26651;2.64706
9.27272;2.84314
9.27893;2.15686
9.28514;2.21569
9.29135;2.66667
9.29756;1.98039
9.30377;1.96078
9.30998;2.35294
9.31619;1.88235
9.3224;2.31373
9.32861;2.62745
9.33482;2.21569
9.34103;1.4902
9.34724;2.70588
9.35345;3.07843
9.35966;2.31373
9.36588;2.86275
9.37209;3.29412
9.3783;2.52941
9.38451;2.62745
9.39072;3.11765
9.39693;2.96078
9.40314;2.11765
9.40935;3.11765
9.41556;2.90196
9.42177;2.15686
9.42798;2.76471
9.43419;2.92157
9.4404;2.41176
9.44661;2.4902
9.45282;2.62745
9.45903;2.17647
9.46524;0.901961
9.47145;0.509804
9.47766;0.0784314
9.48387;0
9.49008;0.176471
9.49629;0.686275
9.5025;1.4902
9.50871;2.29412
9.51492;3.29412
9.52113;2.86275
9.52734;2.4902
9.53349;3.35294
9.53963;3.23529
9.54578;2.80392
9.55193;3.43137
9.55807;3.15686
9.56422;2.45098
9.57036;3.23529
9.57651;3.19608
9.58265;2.37255
9.5888;3.03922
9.59494;3.15686
9.60109;2.07843
9.60723;2.70588
9.61338;2.96078
9.61953;2.21569
9.62567;2.19608
9.63182;2.43137
9.63796;1.7451
9.64411;2.05882
9.65025;2.09804
9.6564;1.62745
9.66254;1.35294
9.66869;1.88235
9.67484;0.980392
9.68098;0.862745
9.68713;1.54902
9.69327;0.960784
9.69942;0.490196
9.70556;1.23529
9.71171;1.37255
9.71785;0.647059
9.724;1.58824
9.73014;1.31373
9.73629;0.921569
9.74244;1.7451
9.74858;1.76471
9.75473;1.80392
9.76087;3.11765
9.76702;3.33333
9.77316;2.88235
9.77931;3.98039
9.78545;4.37255
9.7916;3.94118
9.79774;3.96078
9.80389;4.54902
9.81004;3.94118
9.81618;4.37255
9.82233;4.4902
9.82847;4
9.83462;3.54902
9.84081;4.15686
9.84705;3.92157
9.85328;3.19608
9.85952;4.15686
9.86576;3.86275
9.87199;3.07843
9.87823;3.52941
9.88447;3.72549
9.89071;3.15686
9.89694;2.94118
9.90318;3.19608
9.90942;3.11765
9.91565;2.62745
9.92189;3.37255
9.92813;3.15686
9.93436;2.47059
9.9406;2.92157
9.94684;3.09804
9.95308;2.54902
9.95931;2.47059
9.96555;3.03922
9.97179;2.7451
9.97802;2.31373
9.98426;3.03922
9.9905;2.70588
9.99673;2.17647
10.003;2.84314
10.0092;2.68627
10.0154;1.86275
10.0217;2.72549
10.0279;2.82353
10.0342;1.98039
10.0404;2.88235
10.0466;2.58824
10.0529;1.86275
10.0591;2.64706
10.0653;2.82353
10.0716;2.37255
10.0778;2.19608
10.0841;2.76471
10.0903;2.19608
10.0965;2.45098
10.1028;2.94118
10.109;2.39216
10.1152;2.29412
10.1215;3.13725
10.1277;2.19608
10.1339;2.39216
10.1402;2.98039
10.1464;2.66667
10.1527;1.92157
10.1589;2.90196
10.1651;2.80392
10.1713;2.5098
10.1775;2.94118
10.1837;2.7451
10.1899;2.23529
10.1961;3.01961
10.2023;3.03922
10.2085;2.19608
10.2146;3.23529
10.2208;2.98039
10.227;1.94118
10.2332;2.94118
10.2394;3.07843
10.2456;2.45098
10.2518;2.7451
10.258;2.92157
10.2642;2.23529
10.2704;2.92157
10.2766;3.39216
10.2828;2.86275
10.289;2.39216
10.2952;2.92157
10.3014;2.68627
10.3076;2
10.3138;2.82353
10.32;2.90196
10.3262;2.09804
10.3324;2.60784
10.3386;2.90196
10.3448;2.19608
10.351;2.43137
10.3572;3
10.3634;2.62745
10.3696;1.98039
10.3758;2.7451
10.382;2.64706
10.3882;1.70588
10.3944;2.15686
10.4006;2.21569
10.4068;1.70588
10.413;1.54902
10.4192;2.37255
10.4254;2.13725
10.4316;1.64706
10.4378;2.56863
10.444;2.4902
10.4502;1.70588
10.4564;2.72549
10.4626;2.88235
10.4688;2.78431
10.4749;2.4902
10.4811;3.47059
10.4872;3.21569
10.4933;2.64706
10.4995;3.33333
10.5056;3.11765
10.5118;2.76471
10.5179;3.56863
10.524;3.56863
10.5302;2.47059
10.5363;3.11765
10.5425;3.01961
10.5486;2.82353
10.5548;3.17647
10.5609;2.07843
10.567;0.372549
10.5732;0.0392157
10.5793;0
10.5855;0.470588
10.5916;1.2549
10.5977;2.41176
10.6039;2.31373
10.61;3.05882
10.6162;3.33333
10.6223;2.88235
10.6285;3.35294
10.6346;3.43137
10.6407;2.92157
10.6469;2.98039
10.653;3.29412
10.6592;2.86275
10.6653;2.41176
10.6714;3.03922
10.6776;2.68627
10.6837;2.27451
10.6899;2.86275
10.696;2.56863
10.7022;1.82353
10.7083;2.68627
10.7144;2.41176
10.7206;1.78431
10.7267;2.58824
10.7329;2.19608
10.739;1.27451
10.7451;1.90196
10.7513;2.13725
10.7574;1.05882
10.7636;1.80392
10.7697;1.62745
10.7759;0.941176
10.7821;1.23529
10.7883;1.03922
10.7945;0.901961
10.8008;0.647059
10.807;1.23529
10.8133;0.784314
10.8195;0.313726
10.8258;1.45098
10.832;1.27451
10.8383;0.960784
10.8445;1.70588
10.8507;2.23529
10.857;2.19608
10.8632;2.54902
10.8695;3.54902
10.8757;3.68627
10.882;3.2549
10.8882;4.27451
10.8945;4.45098
10.9007;3.66667
10.9069;4.21569
10.9132;4.72549
10.9194;3.96078
10.9257;3.94118
10.9319;4.35294
10.9382;3.98039
10.9444;3.07843
10.9507;4.11765
10.9569;3.94118
10.9631;2.98039
10.9694;3.52941
10.9756;3.54902
10.9819;2.90196
10.9881;2.76471
10.9944;3.5098
11.0006;2.66667
11.0069;2.96078
11.0131;3.31373
11.0193;2.72549
11.0256;2.43137
11.0318;3.23529
11.0381;3.05882
11.0443;2.86275
11.0506;3.17647
11.0568;2.86275
11.0631;2.35294
11.0693;3.2549
11.0756;3.07843
11.0818;2.37255
11.088;2.76471
11.0943;2.94118
11.1005;2.23529
11.1067;2.90196
11.1128;3.05882
11.119;2.39216
11.1252;2.76471
11.1314;2.90196
11.1375;2.35294
11.1437;2.84314
11.1499;3.01961
11.156;2.56863
11.1622;2.80392
11.1684;3.19608
11.1746;2.39216
11.1807;2.64706
11.1869;3.21569
11.1931;2.4902
11.1992;2.29412
11.2054;3.2549
11.2116;2.84314
11.2178;2.84314
11.2239;3.21569
11.2301;2.86275
11.2363;2.43137
11.2425;3.29412
11.2486;3.07843
11.2548;2.23529
11.261;3.19608
11.2671;2.78431
11.2733;2.07843
11.2795;3.09804
11.2857;3.07843
11.2918;2.19608
11.298;2.72549
11.3042;2.96078
11.3103;2.47059
11.3165;2.39216
11.3227;3.05882
11.3289;2.66667
11.335;2.15686
11.3412;2.88235
11.3474;2.86275
11.3536;2.21569
11.3597;2.35294
11.3659;2.7451
11.3721;2.43137
11.3782;2.11765
11.3844;2.66667
11.3906;2.64706
11.3968;1.90196
11.4029;2.76471
11.4091;2.43137
11.4153;2.13725
11.4214;2.62745
11.4276;2.82353
11.4338;2.29412
11.4399;2.09804
11.4461;2.5098
11.4523;2.17647
11.4584;1.92157
11.4646;2.03922
11.4708;2.01961
11.477;1.66667
11.4831;2.60784
11.4893;2.35294
11.4955;1.4902
11.5016;2.52941
11.5078;2.37255
11.514;2.09804
11.5201;3.09804
11.5263;3.09804
11.5325;2.52941
11.5386;3.23529
11.5448;2.98039
11.551;2.37255
11.5571;3.35294
11.5633;3.31373
11.5695;2.4902
11.5756;2.88235
11.5818;3.31373
11.588;2.52941
11.5942;3.35294
11.6003;3.35294
11.6065;2.84314
11.6127;2.21569
11.6188;1.66667
11.625;0.392157
11.6312;0.176471
11.6373;0.235294
11.6435;0.941176
11.6497;2.15686
11.6558;3.80392
11.662;3.62745
11.6682;2.72549
11.6743;3.45098
11.6805;3.03922
11.6867;2.33333
11.6928;3.27451
11.699;3.19608
11.7052;2.19608
11.7114;2.78431
11.7175;2.72549
11.7237;1.80392
11.7299;2.80392
11.7362;2.52941
11.7425;2.01961
11.7487;2.37255
11.755;2.4902
11.7612;2.09804
11.7675;1.98039
11.7738;2.43137
11.78;2.21569
11.7863;1.43137
11.7925;2.29412
11.7988;2.13725
11.8051;1.33333
11.8113;1.56863
11.8176;1.94118
11.8238;1.41176
11.8301;1.03922
11.8364;1.54902
11.8426;1.09804
11.8489;0.470588
11.8551;1.09804
11.8614;0.980392
11.8677;0.117647
11.8739;0.803922
11.8802;1.13725
11.8864;0.607843
11.8927;0.686275
11.899;1.4902
11.9052;1.37255
11.9115;0.882353
11.9177;2.37255
11.924;2.68627
11.9303;2.35294
11.9365;3.35294
11.9428;3.92157
11.949;3.72549
11.9553;3.68627
11.9616;4.5098
11.9678;4.13725
11.9741;4.23529
11.9803;4.56863
11.9866;4.23529
11.9929;3.84314
11.9991;4.31373
12.0054;3.72549
12.0116;3.56863
12.0179;4.17647
12.0242;3.62745
12.0304;3.05882
12.0367;3.90196
12.0429;3.47059
12.0491;2.64706
12.0552;3.66667
12.0614;3.58824
12.0676;2.52941
12.0738;3.27451
12.0799;3.37255
12.0861;2.64706
12.0923;3.33333
12.0984;3.17647
12.1046;2.03922
12.1108;3.03922
12.117;3.19608
12.1231;2.76471
12.1293;2.58824
12.1355;2.88235
12.1417;2.43137
12.1478;2.7451
12.154;2.98039
12.1602;2.54902
12.1663;2.21569
12.1725;3.05882
12.1787;2.23529
12.1849;2.45098
12.191;2.58824
12.1972;2.86275
12.2034;1.92157
12.2095;2.7451
12.2157;3.09804
12.2219;2.07843
12.2281;2.84314
12.2342;2.5098
12.2404;2.19608
12.2466;2.64706
12.2528;2.7451
12.2589;2.03922
12.2651;2.27451
12.2713;2.66667
12.2774;2.2549
12.2836;2.21569
12.2898;2.98039
12.296;2.62745
12.3021;2.07843
12.3083;2.70588
12.3145;2.96078
12.3206;2.09804
12.3268;2.54902
12.333;2.88235
12.3392;2.35294
12.3453;2.27451
12.3515;2.90196
12.3577;2.68627
12.3639;2.05882
12.3701;2.86275
12.3763;2.66667
12.3825;2.31373
12.3887;2.64706
12.395;2.88235
12.4012;2.52941
12.4074;2.41176
12.4136;2.82353
12.4198;2.64706
12.426;2.2549
12.4322;2.96078
12.4384;2.66667
12.4446;2.07843
12.4508;2.43137
12.457;2.62745
12.4632;1.56863
12.4694;2.27451
12.4756;2.39216
12.4818;1.47059
12.4881;1.84314
12.4943;2.43137
12.5005;2.13725
12.5067;2.33333
12.5129;2.45098
12.5191;2.29412
12.5253;2.21569
12.5315;3.01961
12.5377;3.03922
12.5439;2.58824
12.5501;3.33333
12.5563;2.84314
12.5625;2.60784
12.5687;3.45098
12.5749;3.09804
12.5812;2
12.5874;3.13725
12.5936;2.96078
12.5998;2.37255
12.606;3.17647
12.6122;3.17647
12.6184;2.2549
12.6246;2.11765
12.6308;1.43137
12.637;0.117647
12.6432;0.0196078
12.6494;0.176471
12.6556;0.588235
12.6618;2.11765
12.668;3.2549
12.6742;2.96078
12.6804;3.19608
12.6866;3.5098
12.6928;2.66667
12.699;2.56863
12.7052;3.19608
12.7114;2.88235
12.7176;2.37255
12.7238;2.86275
12.73;2.5098
12.7362;2.17647
12.7424;3.31373
12.7486;2.5098
12.7548;1.80392
12.761;2.52941
12.7672;2.33333
12.7734;1.78431
12.7796;1.98039
12.7857;2.39216
12.7919;1.88235
12.7981;1.56863
12.8043;2.2549
12.8105;1.80392
12.8167;1.21569
12.8229;1.92157
12.8291;1.56863
12.8353;1.05882
12.8415;1.2549
12.8477;1.52941
12.8539;0.960784
12.8601;0.607843
12.8663;1.29412
12.8725;1
12.8787;0.470588
12.8849;1.23529
12.8911;1.27451
12.8973;0.588235
12.9035;1.33333
12.9096;1.68627
12.9158;1.58824
12.922;1.80392
12.9282;2.90196
12.9344;2.86275
12.9406;2.4902
12.9468;3.80392
12.953;3.82353
12.9592;3.4902
12.9654;4.56863
12.9716;4.41176
12.9778;3.76471
12.984;4.21569
12.9901;4.47059
12.9963;3.78431
13.0024;3.82353
13.0086;3.96078
13.0147;3.29412
13.0209;3.70588
13.027;3.92157
13.0332;3.45098
13.0393;3.05882
13.0455;3.54902
13.0516;3.19608
13.0578;3.15686
13.0639;3.43137
13.0701;3
13.0762;2.68627
13.0824;3.31373
13.0885;3.03922
13.0947;2.64706
13.1008;3.21569
13.107;2.80392
13.1131;2.17647
13.1193;2.96078
13.1254;3
13.1316;2.33333
13.1377;2.94118
13.1439;2.76471
13.15;2.23529
13.1562;2.80392
13.1623;3
13.1685;2.31373
13.1746;2.68627
13.1808;2.82353
13.1869;2
13.1931;2.66667
13.1992;2.7451
13.2054;2.45098
13.2115;2.4902
13.2177;2.92157
13.2238;2.72549
13.23;2.09804
13.2361;3.17647
13.2423;2.86275
13.2484;2.19608
13.2546;2.72549
13.2607;3.01961
13.2669;2.54902
13.273;2.62745
13.2792;3.52941
13.2853;2.90196
13.2915;2.15686
13.2976;2.90196
13.3038;3.03922
13.31;2.27451
13.3162;3.03922
13.3224;2.94118
13.3286;2.43137
13.3348;2.52941
13.341;3.07843
13.3472;2.72549
13.3534;1.98039
13.3596;3.03922
13.3658;2.80392
13.372;2.09804
13.3782;2.72549
13.3844;2.82353
13.3906;2.45098
13.3968;2.4902
13.403;3.03922
13.4092;2.47059
13.4154;2.33333
13.4216;2.94118
13.4278;2.41176
13.434;2.31373
13.4402;3.07843
13.4464;2.84314
13.4526;2.11765
13.4588;2.96078
13.465;2.64706
13.4712;2.31373
13.4774;3.01961
13.4836;3
13.4898;1.98039
13.496;2.5098
13.5022;2.5098
13.5084;1.56863
13.5146;2.43137
13.5208;2.5098
13.527;1.82353
13.5332;2.5098
13.5394;2.56863
13.5456;2.03922
13.5518;2.76471
13.558;3.07843
13.5642;2.58824
13.5704;3
13.5766;3.56863
13.5828;3.19608
13.589;2.72549
13.5952;3.33333
13.6014;3.13725
13.6076;2.78431
13.6138;3.47059
13.62;3.15686
13.6262;2.4902
13.6325;3.07843
13.6387;2.80392
13.6449;2.92157
13.6511;3.13725
13.6573;1.80392
13.6636;0.529412
13.6698;0.156863
13.676;0.0784314
13.6822;0.176471
13.6885;1.41176
13.6947;2.58824
13.7009;2.23529
13.7071;3.03922
13.7133;3.27451
13.7196;2.82353
13.7258;2.64706
13.732;3.01961
13.7382;2.82353
13.7445;2.43137
13.7507;3.05882
13.7569;2.96078
13.7631;2.21569
13.7693;2.62745
13.7756;2.94118
13.7818;2.39216
13.788;2.03922
13.7942;2.84314
13.8004;2.47059
13.8067;1.80392
13.8129;2.52941
13.8191;2.35294
13.8253;1.70588
13.8316;2.09804
13.8378;2.19608
13.844;1.54902
13.8502;1.7451
13.8564;1.80392
13.8627;1.62745
13.8689;1.17647
13.8751;1.64706
13.8813;1.39216
13.8876;0.686275
13.8938;1.19608
13.9;1.05882
13.9062;0.666667
13.9124;0.647059
13.9187;1.23529
13.9248;0.431373
13.931;1.05882
13.9372;1.39216
13.9433;1.27451
13.9495;1.11765
13.9556;2.09804
13.9618;2.15686
13.9679;2.64706
13.9741;3.39216
13.9802;3.27451
13.9864;3.13725
13.9925;4.13725
13.9987;4.09804
14.0048;3.37255
14.011;4.5098
14.0171;4.13725
14.0233;3.27451
14.0295;4.05882
14.0356;3.96078
14.0418;3.17647
14.0479;3.76471
14.0541;3.76471
14.0602;2.68627
14.0664;3.58824
14.0725;3.52941
14.0787;2.62745
14.0848;3.01961
14.091;3.19608
14.0971;2.68627
14.1033;3.05882
14.1094;3.21569
14.1156;2.72549
14.1217;2.47059
14.1279;3.2549
14.1341;2.94118
14.1402;2.60784
14.1464;3.07843
14.1525;2.94118
14.1587;2.37255
14.1648;3.11765
14.171;2.78431
14.1771;2.21569
14.1833;3.05882
14.1894;2.7451
14.1956;2.23529
14.2017;3
14.2079;2.92157
14.214;1.94118
14.2202;2.72549
14.2264;3.13725
14.2325;2.4902
14.2387;2.23529
14.2449;2.72549
14.2511;2.45098
14.2573;2.03922
14.2635;2.96078
14.2697;2.56863
14.2759;2.07843
14.2822;2.56863
14.2884;2.92157
14.2946;2.56863
14.3008;2.47059
14.307;3.27451
14.3132;2.60784
14.3194;2.07843
14.3256;2.88235
14.3318;3.15686
14.3381;1.82353
14.3443;2.68627
14.3505;2.90196
14.3567;2.45098
14.3629;2.03922
14.3691;2.52941
14.3753;2.31373
14.3815;2.03922
14.3877;2.86275
14.3939;2.70588
14.4002;2.29412
14.4064;2.82353
14.4126;3
14.4188;2.21569
14.425;2.86275
14.4312;2.84314
14.4374;2.13725
14.4436;2.5098
14.4498;2.96078
14.456;2.33333
14.4623;2.21569
14.4685;2.86275
14.4747;2.41176
14.4809;2.58824
14.4871;2.92157
14.4933;2.64706
14.4995;2.05882
14.5057;3.09804
14.5119;2.52941
14.5182;2.27451
14.5244;2.84314
14.5306;2.76471
14.5368;1.86275
14.543;2.86275
14.5492;2.84314
14.5554;1.84314
14.5616;2.41176
14.5678;2.19608
14.574;1.64706
14.5801;1.96078
14.5863;2.19608
14.5925;1.7451
14.5987;2.37255
14.6049;2.17647
14.6111;1.54902
14.6173;2.47059
14.6235;2.82353
14.6296;2.43137
14.6358;2.58824
14.642;2.98039
14.6482;2.45098
14.6544;2.60784
14.6606;2.98039
14.6668;2.58824
14.673;2.09804
14.6791;2.80392
14.6853;2.45098
14.6915;2.76471
14.6977;3.13725
14.7039;2.98039
14.7101;2.62745
14.7163;3.27451
14.7225;2.09804
14.7286;0.392157
14.7348;0
14.741;0
14.7472;0
14.7534;0.333333
14.7596;1.52941
14.7658;2.43137
14.7719;2.35294
14.7781;3.58824
14.7843;3.54902
14.7905;2.56863
14.7967;3.31373
14.8029;3.76471
14.8091;3
14.8153;2.76471
14.8214;3.35294
14.8276;3.01961
14.8338;2.47059
14.84;3.15686
14.8462;2.80392
14.8524;2.09804
14.8586;2.45098
14.8648;2.62745
14.8709;1.84314
14.8771;2.17647
14.8833;2.05882
14.8895;1.66667
14.8956;1.86275
14.9018;2.09804
14.908;1.27451
14.9142;1.39216
14.9203;2.03922
14.9265;1.27451
14.9327;1.43137
14.9389;1.82353
14.945;1.35294
14.9512;0.686275
14.9574;1.56863
14.9636;1.03922
14.9697;0.921569
14.9759;1.31373
14.9821;0.941176
14.9883;0.705882
14.9945;1.66667
15.0006;1.56863
15.0068;1.13725
15.013;2.39216
15.0192;2.2549
15.0253;1.78431
15.0315;2.86275
15.0377;3.41176
15.0439;3.05882
15.05;3.90196
15.0562;4
15.0624;3.37255
15.0686;3.86275
15.0747;4.31373
15.0809;3.72549
15.0871;3.37255
15.0933;4.11765
15.0994;3.70588
15.1056;3.58824
15.1118;3.78431
15.118;3.72549
15.1241;3.05882
15.1303;3.68627
15.1365;3.2549
15.1427;2.82353
15.1489;3.7451
15.155;3.29412
15.1612;2.62745
15.1674;3.41176
15.1736;3.15686
15.1798;2.41176
15.1861;2.94118
15.1923;3.27451
15.1985;2.72549
15.2048;2.43137
15.211;3.07843
15.2173;2.7451
15.2235;2.17647
15.2298;3
15.236;2.90196
15.2423;2.4902
15.2485;2.62745
15.2548;2.98039
15.261;2.37255
15.2673;2.27451
15.2735;3.03922
15.2798;2.78431
15.286;2.05882
15.2923;2.94118
15.2985;2.68627
15.3048;2.2549
15.311;2.72549
15.3173;3
15.3235;2.37255
15.3298;2.45098
15.336;3.19608
15.3423;2.76471
15.3485;1.98039
15.3548;3.13725
15.361;3.07843
15.3673;2.21569
15.3735;2.70588
15.3798;3
15.386;2.15686
15.3923;3.09804
15.3985;3.03922
15.4047;2.27451
15.411;2.64706
15.4172;3.01961
15.4235;2.27451
15.4297;2.80392
15.436;3
15.4422;2.45098
15.4485;2.58824
15.4547;2.80392
15.461;2.56863
15.4672;2.52941
15.4735;2.82353
15.4797;2.2549
15.486;2.09804
15.4922;2.94118
15.4984;2.76471
15.5045;1.84314
15.5107;2.90196
15.5169;2.47059
15.523;2.17647
15.5292;3.23529
15.5354;2.76471
15.5415;2.11765
15.5477;2.68627
15.5539;2.72549
15.56;2.09804
15.5662;2.78431
15.5724;2.64706
15.5785;2.11765
15.5847;2.76471
15.5909;3.15686
15.597;1.96078
15.6032;2.80392
15.6094;3
15.6156;2.33333
15.6217;2.41176
15.6279;2.80392
15.6341;2.29412
15.6402;2.09804
15.6464;2.2549
15.6526;1.76471
15.6587;1.52941
15.6649;2.4902
15.6711;2.35294
15.6772;1.82353
15.6834;2.60784
15.6896;3.07843
15.6957;2.11765
15.7019;2.82353
15.7081;3.56863
15.7142;3.31373
15.7204;3.31373
15.7266;4.13725
15.7328;3.90196
15.7389;2.84314
15.7451;3.60784
15.7513;3.70588
15.7574;3.03922
15.7636;3.54902
15.7698;3.80392
15.7759;3.31373
15.7821;3.01961
15.7883;3.5098
15.7944;3.37255
15.8006;2.84314
15.8068;3.21569
15.8129;2.13725
15.8191;0.411765
15.8253;0.0980392
15.8314;0.0392157
15.8376;0.0588235
15.8438;0.647059
15.85;2.27451
15.8561;2.64706
15.8623;2.64706
15.8685;3.45098
15.8746;3.13725
15.8808;2.4902
15.887;3.2549
15.8931;3.07843
15.8993;2.23529
15.9055;2.94118
15.9116;3.01961
15.9178;2.37255
15.924;3.03922
15.9301;2.56863
15.9363;1.82353
15.9425;2.7451
15.9486;2.98039
15.9548;2.35294
15.961;2.41176
15.9672;2.7451
15.9733;1.90196
15.9795;2.23529
15.9857;2.60784
15.9918;2.19608
15.998;1.58824
16.0042;2.01961
16.0103;1.21569
16.0165;0.960784
16.0227;1.58824
16.0288;0.921569
16.035;0.431373
16.0412;1.07843
16.0473;0.980392
16.0535;0.372549
16.0597;0.882353
16.0658;0.607843
16.072;0.333333
16.0782;1.07843
16.0844;1.17647
16.0905;0.882353
16.0967;1.92157
16.1029;1.96078
16.109;1.80392
16.1152;3.01961
16.1215;3.76471
16.1277;3
16.134;3.64706
16.1402;4.31373
16.1465;3.96078
16.1527;4.09804
16.1589;4.56863
16.1652;4.05882
16.1714;3.7451
16.1777;4.2549
16.1839;3.84314
16.1902;3.45098
16.1964;3.98039
16.2027;3.82353
16.2089;2.98039
16.2151;3.35294
16.2214;3.66667
16.2276;3.13725
16.2339;2.78431
16.2401;3.43137
16.2464;3
16.2526;2.43137
16.2589;3.19608
16.2651;3.07843
16.2713;2.13725
16.2776;2.60784
16.2838;2.72549
16.2901;2.23529
16.2963;2.05882
16.3026;2.70588
16.3088;2.39216
16.3151;2.09804
16.3213;3.19608
16.3275;2.98039
16.3338;2.43137
16.34;2.47059
16.3463;2.35294
16.3525;1.76471
16.3588;1.54902
16.365;1.56863
16.3713;0.941176
16.3775;0.509804
16.3838;1.47059
16.39;1.11765
16.3962;1.41176
16.4025;1.86275
16.4087;1.7451
16.415;1.17647
16.4212;1.84314
16.4275;1.80392
16.4336;1.70588
16.4398;2.17647
16.446;1.76471
16.4521;1.07843
16.4583;1.88235
16.4645;1.98039
16.4706;1.03922
16.4768;2.01961
16.4829;2.11765
16.4891;1.4902
16.4953;1.92157
16.5014;1.70588
16.5076;1.29412
16.5138;1.60784
16.5199;1.90196
16.5261;1.66667
16.5323;1.98039
16.5384;2.52941
16.5446;2.09804
16.5508;1.60784
16.5569;2.13725
16.5631;1.70588
16.5692;1.37255
16.5754;2.35294
16.5816;2.70588
16.5877;2.05882
16.5939;3.11765
16.6001;2.86275
16.6062;2.17647
16.6124;3.11765
16.6186;2.84314
16.6247;2.01961
16.6309;2.62745
16.6371;2.80392
16.6432;2.41176
16.6494;2.41176
16.6556;2.80392
16.6617;2.54902
16.6679;2
16.674;3.01961
16.6802;2.76471
16.6864;1.92157
16.6925;2.52941
16.6987;2.47059
16.7049;1.80392
16.711;1.90196
16.7172;1.88235
16.7234;1.60784
16.7295;1.13725
16.7357;2.01961
16.7419;1.98039
16.748;1.33333
16.7542;2.13725
16.7603;2.15686
16.7665;1.60784
16.7727;2.03922
16.7788;2.68627
16.785;2.39216
16.7912;2.54902
16.7973;3.23529
16.8035;3.21569
16.8097;2.5098
16.8158;3.29412
16.822;3.35294
16.8282;2.52941
16.8343;3
16.8405;3.17647
16.8467;2.54902
16.8528;2.98039
16.859;3.33333
16.8651;2.84314
16.8713;2.54902
16.8775;2.47059
16.8836;0.196078
16.8898;0.0196078
16.896;0.333333
16.9021;0
16.9083;0.215686
16.9145;1.80392
16.9206;2.54902
16.9268;2.92157
16.933;3.17647
16.9391;2.98039
16.9453;2.27451
16.9515;3.01961
16.9576;3.01961
16.9638;2.33333
16.9699;3.17647
16.9761;2.90196
16.9823;2.39216
16.9884;3.11765
16.9946;2.80392
17.0008;2.01961
17.0069;2.52941
17.0131;2.70588
17.0193;2.17647
17.0254;2.66667
17.0316;2.68627
17.0378;1.78431
17.0439;2.35294
17.0501;2.39216
17.0563;1.54902
17.0625;1.90196
17.0687;2.09804
17.0749;1.4902
17.0811;1.09804
17.0873;1.70588
17.0935;1.45098
17.0997;0.784314
17.1059;1.09804
17.1121;0.72549
17.1184;0.235294
17.1246;1.01961
17.1308;0.921569
17.137;0.196078
17.1432;1.03922
17.1494;1.07843
17.1556;0.862745
17.1618;1.27451
17.168;1.96078
17.1742;2.11765
17.1804;1.96078
17.1866;3.45098
17.1928;3.52941
17.199;3.2549
17.2052;4.05882
17.2115;4.39216
17.2177;4.03922
17.2239;4.15686
17.2301;4.60784
17.2363;4.19608
17.2425;3.80392
17.2487;4.41176
17.2549;4.15686
17.2611;3.43137
17.2673;3.62745
17.2735;4
17.2797;3.43137
17.2859;3.54902
17.2921;3.94118
17.2983;3.39216
17.3046;2.94118
17.3108;3.7451
17.317;3.41176
17.3232;2.70588
17.3294;3.31373
17.3356;3.37255
17.3418;2.54902
17.348;3.2549
17.3542;3.15686
17.3604;2.64706
17.3666;2.94118
17.3727;3.19608
17.3789;2.84314
17.385;3.15686
17.3912;2.84314
17.3973;2.39216
17.4035;2.52941
17.4096;3.05882
17.4157;2.7451
17.4219;2.66667
17.428;3.2549
17.4342;2.60784
17.4403;2.4902
17.4465;3.07843
17.4526;2.78431
17.4588;2.11765
17.4649;2.98039
17.4711;2.52941
17.4772;2.29412
17.4833;2.98039
17.4895;2.47059
17.4956;2.15686
17.5018;2.92157
17.5079;2.98039
17.5141;2.19608
17.5202;2.86275
17.5264;2.80392
17.5325;2.21569
17.5387;2.66667
17.5448;2.92157
17.5509;2.64706
17.5571;2.98039
17.5632;3.27451
17.5694;2.37255
17.5755;2.4902
17.5817;2.90196
17.5878;2.43137
17.594;2.15686
17.6001;2.82353
17.6063;2.45098
17.6124;2.2549
17.6185;2.88235
17.6247;2.5098
17.6308;2.11765
17.637;3.11765
17.6431;2.56863
17.6493;2.09804
17.6554;2.76471
17.6616;2.78431
17.6677;2.29412
17.6739;2.47059
17.6801;2.78431
17.6863;2.35294
17.6926;2.03922
17.6988;2.96078
17.705;2.58824
17.7113;1.80392
17.7175;2.37255
17.7238;2.41176
17.73;1.7451
17.7362;1.78431
17.7425;2.13725
17.7487;1.94118
17.7549;1.62745
17.7612;2.37255
17.7674;2.29412
17.7737;1.60784
17.7799;2.47059
17.7861;2.84314
17.7924;2.52941
17.7986;2.64706
17.8048;3.33333
17.8111;3.01961
17.8173;2.70588
17.8235;3.35294
17.8298;3.27451
17.836;2.58824
17.8423;3.19608
17.8485;3.05882
17.8547;2.43137
17.861;3.03922
17.8672;3.03922
17.8734;2.4902
17.8797;3
17.8859;3.09804
17.8922;1.47059
17.8984;1.21569
17.9046;0.176471
17.9109;0.0588235
17.9171;0.0980392
17.9233;0.529412
17.9296;2.23529
17.9358;3.47059
17.9421;3.64706
17.9483;3.15686
17.9545;2.70588
17.9608;3.13725
17.967;2.82353
17.9732;2.68627
17.9795;3.07843
17.9857;2.88235
17.9919;2.29412
17.9981;3
18.0043;2.76471
18.0105;2.05882
18.0167;2.70588
18.0229;2.35294
18.0291;1.80392
18.0353;2.54902
18.0416;2.31373
18.0478;1.62745
18.054;1.98039
18.0602;1.94118
18.0664;1.31373
18.0726;1.92157
18.0788;1.88235
18.085;1.15686
18.0912;1.33333
18.0974;1.66667
18.1036;1.01961
18.1098;0.803922
18.116;1.45098
18.1222;0.921569
18.1284;0.254902
18.1346;0.784314
18.1408;0.705882
18.147;0.176471
18.1532;0.568627
18.1594;0.764706
18.1656;0.666667
18.1718;0.54902
18.178;1.41176
18.1842;1.7451
18.1904;1.37255
18.1966;2.60784
18.2028;2.88235
18.209;2.68627
18.2152;3.43137
18.2214;4.05882
18.2276;3.80392
18.2338;4.05882
18.24;4.56863
18.2462;4.62745
18.2524;3.98039
18.2586;4.7451
18.2648;4.47059
18.2711;3.92157
18.2773;4.07843
18.2835;4.27451
18.2897;3.7451
18.2959;3.41176
18.3021;4.17647
18.3082;3.4902
18.3143;3.31373
18.3205;3.78431
18.3266;3.27451
18.3328;2.82353
18.3389;3.33333
18.3451;2.82353
18.3512;2.76471
18.3573;3.15686
18.3635;2.98039
18.3696;2.27451
18.3758;3.03922
18.3819;3
18.388;2.27451
18.3942;3
18.4003;2.72549
18.4065;2.07843
18.4126;2.90196
18.4188;3.23529
18.4249;2.47059
18.431;3.19608
18.4372;3.07843
18.4433;2.58824
18.4495;2.92157
18.4556;2.90196
18.4617;2.43137
18.4679;2.60784
18.474;3.15686
18.4802;2.45098
18.4863;2.70588
18.4925;3
18.4986;2.90196
18.5047;2.39216
18.5109;3.19608
18.517;2.52941
18.5232;2.29412
18.5293;3.07843
18.5354;2.66667
18.5416;2.09804
18.5477;2.92157
18.5539;2.68627
18.56;2.23529
18.5662;2.90196
18.5723;2.60784
18.5784;1.88235
18.5846;2.72549
18.5907;2.88235
18.5969;1.96078
18.603;2.56863
18.6091;2.90196
18.6153;2.43137
18.6215;2.11765
18.6277;2.84314
18.6339;2.7451
18.6401;1.96078
18.6463;2.90196
18.6525;2.90196
18.6587;2.35294
18.6649;2.52941
18.6711;2.86275
18.6773;2.31373
18.6835;1.92157
18.6897;2.60784
18.6959;2.09804
18.7021;1.35294
18.7083;2.29412
18.7145;2.35294
18.7207;1.56863
18.7269;2
18.7331;2.66667
18.7393;2.13725
18.7455;2.01961
18.7517;2.70588
18.758;2.80392
18.7642;2.35294
18.7704;3.21569
18.7766;3.07843
18.7828;2.4902
18.789;2.82353
18.7952;3.11765
18.8014;2.27451
18.8076;2.98039
18.8138;3.29412
18.82;2.58824
18.8262;2.43137
18.8324;3.11765
18.8386;2.7451
18.8448;3.01961
18.851;2.58824
18.8572;1.29412
18.8634;0.254902
18.8696;0.0588235
18.8758;0.0196078
18.882;0.156863
18.8882;2.17647
18.8944;2.96078
18.9006;2.68627
18.9068;3.56863
18.913;3.33333
18.9192;2.56863
18.9254;2.96078
18.9316;3.19608
18.9378;2.41176
18.944;3.09804
18.9502;3.09804
18.9564;2.33333
18.9626;2.80392
18.9687;3.03922
18.9749;2.01961
18.9811;2.80392
18.9873;2.64706
18.9935;2.05882
18.9997;2.29412
19.0059;2.68627
19.0121;2.09804
19.0182;2.23529
19.0244;2.21569
19.0306;1.80392
19.0368;1.64706
19.043;2.01961
19.0492;1.84314
19.0554;1.03922
19.0616;1.66667
19.0677;1.2549
19.0739;0.745098
19.0801;1.2549
19.0863;0.941176
19.0925;0.235294
19.0987;1.03922
19.1049;0.921569
19.1111;0.411765
19.1172;0.745098
19.1234;1.19608
19.1296;1.15686
19.1358;0.882353
19.142;2.07843
19.1482;2.23529
19.1544;1.84314
19.1606;2.94118
19.1667;3.5098
19.1729;3.09804
19.1791;3.66667
19.1853;4.52941
19.1915;3.98039
19.1977;3.72549
19.2039;4.56863
19.2101;4.41176
19.2162;3.60784
19.2224;4.19608
19.2286;4.58824
19.2348;3.68627
19.241;3.80392
19.2472;4.05882
19.2533;3.52941
19.2595;3.07843
19.2657;3.68627
19.2719;3.31373
19.278;2.60784
19.2842;3.39216
19.2904;3.19608
19.2966;2.5098
19.3028;3.39216
19.3089;3.13725
19.3151;2.43137
19.3213;3.05882
19.3275;3.13725
19.3336;2.56863
19.3398;2.62745
19.346;2.94118
19.3522;2.45098
19.3583;2.76471
19.3645;3.01961
19.3707;2.64706
19.3769;2.47059
19.383;2.92157
19.3892;2.4902
19.3954;2.66667
19.4016;3.13725
19.4077;2.68627
19.4139;2.37255
19.4201;3.17647
19.4263;3.01961
19.4324;2.45098
19.4386;3
19.4448;2.68627
19.451;2.39216
19.4572;3.07843
19.4633;2.96078
19.4695;2.11765
19.4757;3.03922
19.4819;2.70588
19.488;2.13725
19.4942;2.96078
19.5004;2.90196
19.5066;2.29412
19.5127;2.47059
19.5189;2.84314
19.5251;2.39216
19.5313;2.80392
19.5374;2.92157
19.5436;2.64706
19.5498;2.31373
19.556;2.94118
19.5622;2.70588
19.5684;1.84314
19.5746;2.86275
19.5808;2.72549
19.587;2.29412
19.5932;2.76471
19.5995;2.64706
19.6057;2.33333
19.6119;2.33333
19.6181;2.86275
19.6243;2.37255
19.6305;2.15686
19.6367;2.86275
19.6429;2.52941
19.6491;2.29412
19.6553;2.52941
19.6616;2.90196
19.6678;2.45098
19.674;2.2549
19.6802;2.84314
19.6864;2.27451
19.6926;1.66667
19.6988;2.56863
19.705;2.33333
19.7112;1.96078
19.7175;2.15686
19.7237;2.19608
19.7299;1.78431
19.7361;1.94118
19.7423;2.41176
19.7485;2.27451
19.7547;1.72549
19.7609;2.54902
19.7671;2.41176
19.7733;2.15686
19.7796;3.37255
19.7858;3.03922
19.792;2.39216
19.7982;3.35294
19.8044;3.11765
19.8106;2.41176
19.8168;3.33333
19.823;3.17647
19.8292;2.35294
19.8354;2.94118
19.8417;2.94118
19.8479;2.41176
19.8541;3.19608
19.8603;3.07843
19.8665;2.15686
19.8727;1.54902
19.8788;0.921569
19.885;0
19.8912;0.176471
19.8973;0.235294
19.9035;0.705882
19.9096;1.96078
19.9158;3.11765
19.9219;3.21569
19.9281;2.43137
19.9343;3.43137
19.9404;2.94118
19.9466;2.86275
19.9527;3.56863
19.9589;3.31373
19.965;2.60784
19.9712;3.27451
19.9774;2.82353
19.9835;2.15686
19.9897;3.05882
19.9958;2.7451
20.002;2.21569
20.0081;2.62745
20.0143;2.68627
20.0205;1.76471
20.0266;2.39216
20.0328;2.39216
20.0389;1.58824
20.0451;1.94118
20.0512;2
20.0574;1.64706
20.0635;1.4902
20.0697;2.11765
20.0759;1.52941
20.082;0.882353
20.0882;1.58824
20.0943;1.39216
20.1005;0.803922
20.1066;1.07843
20.1128;1.19608
20.119;0.764706
20.1251;0.72549
20.1313;1.2549
20.1374;0.941176
20.1436;0.686275
20.1497;1.78431
20.1559;1.78431
20.1621;1.62745
20.1682;2.17647
20.1744;2.72549
20.1805;2.64706
20.1867;2.98039
20.1929;3.5098
20.199;3.70588
20.2052;3.31373
20.2114;4.29412
20.2175;4.15686
20.2237;3.76471
20.2298;4.07843
20.236;4.17647
20.2422;3.90196
20.2483;3.72549
20.2545;4.29412
20.2607;3.35294
20.2668;3.47059
20.273;3.90196
20.2792;3.37255
20.2853;3.09804
20.2915;3.80392
20.2977;3.39216
20.3038;2.88235
20.31;3.47059
20.3162;3.07843
20.3223;2.45098
20.3285;3.45098
20.3346;3.17647
20.3408;2.5098
20.347;3.47059
20.3531;3.19608
20.3593;2.31373
20.3655;3.07843
20.3716;3.21569
20.3778;2.23529
20.384;2.4902
20.3901;2.82353
20.3963;2.39216
20.4025;2.94118
20.4086;3.01961
20.4148;2.82353
20.4209;2.76471
20.4271;3.23529
20.4333;2.66667
20.4394;3
20.4456;3.19608
20.4518;2.68627
20.4579;2.60784
20.4641;3.21569
20.4703;2.82353
20.4764;2.47059
20.4826;3.01961
20.4888;3.05882
20.495;2.33333
20.5012;3.11765
20.5074;2.80392
20.5137;2.29412
20.5199;2.98039
20.5262;2.66667
20.5324;2.19608
20.5386;2.92157
20.5449;2.86275
20.5511;2.07843
20.5574;2.58824
20.5636;2.86275
20.5699;2.58824
20.5761;2.11765
20.5823;3.21569
20.5886;2.66667
20.5948;2.07843
20.6011;2.82353
20.6073;2.76471
20.6135;2.33333
20.6198;2.7451
20.626;2.78431
20.6323;2.2549
20.6385;2.23529
20.6447;2.80392
20.651;2.68627
20.6572;2.15686
20.6635;2.98039
20.6697;2.82353
20.6759;2.27451
20.6822;2.84314
20.6884;2.94118
20.6947;2.39216
20.7009;2.31373
20.7071;2.88235
20.7134;2.66667
20.7196;2
20.7259;2.92157
20.7321;2.76471
20.7384;1.84314
20.7446;2.37255
20.7508;2.52941
20.7571;1.70588
20.7633;2.03922
20.7696;2.15686
20.7758;1.60784
20.782;2
20.7883;2.31373
20.7945;1.96078
20.8008;1.76471
20.807;2.78431
20.8132;2.54902
20.8193;2.60784
20.8255;3.33333
20.8317;3
20.8378;2.4902
20.844;3.35294
20.8502;2.92157
20.8563;2.60784
20.8625;3.33333
20.8686;3.29412
20.8748;2.2549
20.881;2.92157
20.8871;3.07843
20.8933;2.43137
20.8995;3.07843
20.9056;2.72549
20.9118;1.47059
20.918;0.980392
20.9241;0
20.9303;0
20.9365;0.196078
20.9426;0.607843
20.9488;1.2549
20.955;2.70588
20.9611;3.31373
20.9673;2.94118
20.9734;2.56863
20.9796;3.52941
20.9858;2.88235
20.9919;2.98039
20.9981;3.43137
21.0043;3
21.0104;2.27451
21.0166;3.15686
21.0228;2.84314
21.0289;2.37255
21.0351;3.13725
21.0413;2.66667
21.0474;1.98039
21.0536;2.80392
21.0597;2.70588
21.0659;2.03922
21.0721;2.21569
21.0782;2.4902
21.0844;1.98039
21.0906;1.60784
21.0967;2.17647
21.1029;1.90196
21.1091;1.15686
21.1152;2
21.1214;1.82353
21.1276;1.01961
21.1338;1.23529
21.14;1.45098
21.1462;0.901961
21.1524;0.54902
21.1586;1.41176
21.1648;0.941176
21.171;0.294118
21.1772;1.33333
21.1834;1.35294
21.1896;0.686275
21.1958;1.39216
21.202;2.17647
21.2083;1.62745
21.2145;2.11765
21.2207;2.96078
21.2269;3.05882
21.2331;2.92157
21.2393;3.96078
21.2455;4
21.2517;3.72549
21.2579;4.21569
21.2641;4.39216
21.2703;3.7451
21.2765;4.33333
21.2827;4.5098
21.2889;3.78431
21.2951;3.94118
21.3013;4.29412
21.3075;3.07843
21.3137;3.72549
21.3199;3.96078
21.3261;3.5098
21.3323;3.23529
21.3385;3.78431
21.3447;3.39216
21.3509;3.31373
21.3571;3.56863
21.3633;3.21569
21.3695;2.84314
21.3757;3.68627
21.3819;3.19608
21.3881;2.62745
21.3943;3.62745
21.4005;3.07843
21.4067;2.80392
21.4129;3.33333
21.4191;3.27451
21.4253;2.5098
21.4315;2.94118
21.4377;3.01961
21.4439;2.31373
21.4501;3.17647
21.4563;2.98039
21.4625;2.43137
21.4687;2.80392
21.4749;3.19608
21.481;2.5098
21.4872;2.94118
21.4934;3.17647
21.4996;2.68627
21.5058;2.56863
21.512;3.13725
21.5182;2.80392
21.5244;2.80392
21.5305;3.68627
21.5367;2.88235
21.5429;2.45098
21.5491;3.43137
21.5553;2.92157
21.5615;2.07843
21.5677;3.07843
21.5739;2.92157
21.58;2.35294
21.5862;2.62745
21.5924;3.07843
21.5986;2.72549
21.6048;2.39216
21.611;3.05882
21.6172;2.70588
21.6234;2.13725
21.6295;2.90196
21.6357;2.98039
21.6419;2.70588
21.6481;2.64706
21.6543;2.88235
21.6605;2.4902
21.6667;2.37255
21.6729;3.11765
21.679;2.82353
21.6852;2.17647
21.6914;3.13725
21.6976;2.98039
21.7038;2.47059
21.71;2.7451
21.7162;3.03922
21.7224;2.19608
21.7285;2.88235
21.7347;2.84314
21.7409;2.31373
21.7471;2.39216
21.7533;2.7451
21.7594;2.54902
21.7656;2.54902
21.7718;2.58824
21.778;2.21569
21.7841;1.88235
21.7903;2.19608
21.7965;1.90196
21.8027;1.4902
21.8088;2.45098
21.815;2.15686
21.8212;1.82353
21.8273;2.66667
21.8335;2.2549
21.8397;2.01961
21.8459;2.86275
21.852;3.13725
21.8582;2.66667
21.8644;3.5098
21.8705;3.39216
21.8767;2.68627
21.8829;3.2549
21.8891;3.54902
21.8952;2.54902
21.9014;3.2549
21.9076;3.31373
21.9137;2.68627
21.9199;2.76471
21.9261;3.31373
21.9323;3.13725
21.9384;2.82353
21.9446;1.96078
21.9508;0.72549
21.957;0.0588235
21.9631;0.156863
21.9693;0.0392157
21.9755;0.392157
21.9816;2.88235
21.9878;3.52941
21.994;3.33333
22.0002;3.54902
22.0063;3.15686
22.0125;2.56863
22.0187;3.31373
22.0248;3.31373
22.031;2.70588
22.0372;3.03922
22.0434;3.39216
22.0495;2.90196
22.0557;2.4902
22.0619;3.09804
22.0681;2.88235
22.0743;1.84314
22.0806;2.72549
22.0868;2.7451
22.093;2.13725
22.0992;2.39216
22.1054;2.56863
22.1116;2.19608
22.1179;1.80392
22.1241;2.43137
22.1303;2.07843
22.1365;1.4902
22.1427;1.96078
22.149;1.7451
22.1552;1.13725
22.1614;1.27451
22.1676;1.56863
22.1738;0.941176
22.18;0.627451
22.1863;1.09804
22.1925;0.823529
22.1987;0.235294
22.2049;0.862745
22.2111;0.843137
22.2174;0.411765
22.2236;1.19608
22.2298;1.11765
22.236;0.784314
22.2422;1.98039
22.2484;2.19608
22.2547;2.2549
22.2609;2.88235
22.2671;3.68627
22.2733;3.43137
22.2795;3.92157
22.2858;4.31373
22.292;4.21569
22.2982;4
22.3044;4.94118
22.3106;3.98039
22.3168;4.23529
22.3231;4.64706
22.3293;4.07843
22.3355;3.76471
22.3417;4.33333
22.3479;4.09804
22.3541;3.2549
22.3604;3.98039
22.3666;3.78431
22.3728;3.03922
22.379;3.62745
22.3852;3.45098
22.3914;2.84314
22.3976;3.52941
22.4038;3.13725
22.41;2.66667
22.4162;3.03922
22.4224;3.09804
22.4286;2.41176
22.4348;2.90196
22.4409;3.03922
22.4471;2.39216
22.4533;2.90196
22.4595;3.07843
22.4657;2.84314
22.4719;2.54902
22.4781;3.19608
22.4843;2.43137
22.4905;2.7451
22.4967;3.01961
22.5029;2.4902
22.5091;2.41176
22.5153;3.13725
22.5215;3
22.5277;2.2549
22.5339;2.96078
22.5401;3.07843
22.5463;2.29412
22.5525;2.82353
22.5587;2.90196
22.5648;2.45098
22.571;2.31373
22.5772;3.07843
22.5834;2.88235
22.5896;2.19608
22.5958;2.90196
22.602;2.86275
22.6082;2.58824
22.6144;2.68627
22.6206;3.01961
22.6268;2.4902
22.633;2.27451
22.6392;3.15686
22.6454;2.78431
22.6516;2.2549
22.6578;2.82353
22.664;2.84314
22.6702;2.37255
22.6764;2.56863
22.6826;2.92157
22.6888;2.64706
22.6949;2.23529
22.701;2.96078
22.7072;2.78431
22.7133;2.01961
22.7195;2.84314
22.7256;2.39216
22.7318;1.76471
22.7379;2.54902
22.7441;2.27451
22.7502;1.39216
22.7564;1.80392
22.7625;2.05882
22.7687;1.52941
22.7748;2.19608
22.781;2.21569
22.7871;1.72549
22.7933;2
22.7994;2.66667
22.8056;2.41176
22.8117;2.88235
22.8179;3.31373
22.824;2.56863
22.8302;2.76471
22.8363;3.23529
22.8425;2.98039
22.8486;2.54902
22.8548;3.17647
22.8609;2.70588
22.8671;2.58824
22.8732;3.07843
22.8794;2.90196
22.8855;2.29412
22.8917;3.13725
22.8978;2.60784
22.904;1.27451
22.9101;0.784314
22.9163;0.0392157
22.9224;0.0784314
22.9286;0.176471
22.9347;0.803922
22.9409;2.07843
22.947;3.5098
22.9532;3.47059
22.9593;2.82353
22.9655;2.90196
22.9716;3.21569
22.9778;2.84314
22.9839;2.94118
22.9901;2.92157
22.9962;2.45098
23.0024;2.47059
23.0086;2.94118
23.0149;2.64706
23.0211;2.05882
23.0274;2.78431
23.0336;2.58824
23.0399;1.94118
23.0461;2.5098
23.0524;2.56863
23.0586;2.11765
23.0648;1.86275
23.0711;2.4902
23.0773;1.84314
23.0836;1.47059
23.0898;2.17647
23.0961;2.01961
23.1023;1.17647
23.1086;1.82353
23.1148;1.66667
23.1211;1.05882
23.1273;1.09804
23.1336;1.35294
23.1398;0.745098
23.1461;0.509804
23.1523;1.29412
23.1586;0.862745
23.1648;0.352941
23.1711;1
23.1773;1.11765
23.1836;0.627451
23.1898;1.66667
23.1961;1.78431
23.2023;1.58824
23.2086;2.4902
23.2148;3
23.2211;2.68627
23.2273;3.88235
23.2336;3.94118
23.2398;3.7451
23.2461;3.96078
23.2523;4.58824
23.2586;4.15686
23.2648;4.31373
23.271;4.31373
23.2773;4.05882
23.2835;3.92157
23.2898;4.17647
23.296;3.72549
23.3023;3.27451
23.3085;3.90196
23.3148;3.35294
23.321;2.96078
23.3272;3.56863
23.3334;3.4902
23.3396;2.56863
23.3459;3.43137
23.3521;3.05882
23.3583;2.43137
23.3645;3.31373
23.3707;3.15686
23.3769;2.27451
23.3831;3.03922
23.3893;3.23529
23.3955;2.15686
23.4018;3.07843
23.408;3.03922
23.4142;2.35294
23.4204;2.7451
23.4266;2.78431
23.4328;2.66667
23.439;2.80392
23.4452;2.96078
23.4514;2.37255
23.4576;2.47059
23.4639;2.92157
23.4701;2.72549
23.4763;2.23529
23.4825;2.94118
23.4887;2.92157
23.4949;1.92157
23.5011;2.88235
23.5073;2.86275
23.5135;2.62745
23.5197;2.56863
23.526;3.05882
23.5322;2.7451
23.5384;2.21569
23.5446;3.15686
23.5508;2.92157
23.557;2.19608
23.5632;2.76471
23.5694;2.96078
23.5756;2.5098
23.5819;2.52941
23.5881;2.90196
23.5943;2.4902
23.6005;2.21569
23.6067;3.07843
23.6129;2.76471
23.6191;2.27451
23.6253;2.88235
23.6315;2.76471
23.6377;2.35294
23.6439;2.56863
23.65;2.86275
23.6562;2.64706
23.6623;2.05882
23.6685;2.94118
23.6747;2.82353
23.6808;2.2549
23.687;2.88235
23.6931;2.54902
23.6993;2.03922
23.7054;3.01961
23.7116;2.72549
23.7178;1.98039
23.7239;2.5098
23.7301;1.98039
23.7362;1.37255
23.7424;1.98039
23.7485;2.13725
23.7547;1.92157
23.7609;2.01961
23.767;2.39216
23.7732;1.72549
23.7793;2.31373
23.7855;2.84314
23.7916;2.62745
23.7978;2.60784
23.804;3.29412
23.8101;2.60784
23.8163;2.7451
23.8224;3.17647
23.8286;2.72549
23.8347;2.45098
23.8409;3.15686
23.8471;2.94118
23.8532;2.52941
23.8594;3.05882
23.8655;2.84314
23.8717;2.5098
23.8778;3.11765
23.884;2.47059
23.8902;0.764706
23.8963;0.0196078
23.9025;0
23.9086;0.0196078
23.9148;0.901961
23.9209;1.86275
23.9271;2.41176
23.9333;2.90196
23.9394;3.33333
23.9456;2.43137
23.9518;3.29412
23.958;3.45098
23.9643;3.07843
23.9705;2.98039
23.9768;3.54902
23.983;3.01961
23.9893;2.4902
23.9955;3.5098
24.0018;3.17647
24.008;2.23529
24.0143;2.88235
24.0205;2.94118
24.0267;2.15686
24.033;2.37255
24.0392;2.64706
24.0455;2.19608
24.0517;1.78431
24.058;2.52941
24.0642;2.27451
24.0705;1.60784
24.0767;2.15686
24.083;2.09804
24.0892;1.41176
24.0955;1.47059
24.1017;1.96078
24.108;1.5098
24.1142;0.901961
24.1205;1.64706
24.1267;1.33333
24.133;0.509804
24.1392;1.33333
24.1455;1.31373
24.1517;0.705882
24.158;1.11765
24.1642;1.60784
24.1705;1.23529
24.1767;1.09804
24.183;2.05882
24.1892;2.09804
24.1955;2.13725
24.2017;3.21569
24.208;3.33333
24.2142;3.07843
24.2205;4.03922
24.2267;4.03922
24.2329;3.66667
24.2392;4.41176
24.2454;4.27451
24.2517;3.68627
24.2579;4.33333
24.2642;4.37255
24.2704;3.41176
24.2765;4.17647
24.2827;3.84314
24.2888;3.11765
24.295;3.4902
24.3012;3.70588
24.3073;3.35294
24.3135;3.66667
24.3197;3.54902
24.3258;2.82353
24.332;3.11765
24.3382;3.58824
24.3443;3.23529
24.3505;2.64706
24.3567;3.33333
24.3628;2.82353
24.369;2.62745
24.3752;3.13725
24.3813;2.98039
24.3875;2.05882
24.3936;3.09804
24.3998;2.88235
24.406;2.45098
24.4121;3.21569
24.4183;2.94118
24.4245;2.13725
24.4306;3.01961
24.4368;2.98039
24.443;2.35294
24.4491;3.05882
24.4553;2.92157
24.4615;2.23529
24.4676;2.96078
24.4738;3
24.4799;2.56863
24.4861;2.66667
24.4923;3.15686
24.4984;2.58824
24.5046;2.15686
24.5108;3.21569
24.5169;2.90196
24.5231;2.31373
24.5293;2.76471
24.5354;2.86275
24.5416;2.45098
24.5478;2.47059
24.5539;3.21569
24.5601;2.68627
24.5663;2.15686
24.5724;3.11765
24.5786;3
24.5848;2.33333
24.591;2.84314
24.5972;3.17647
24.6034;2.64706
24.6097;2.70588
24.6159;3.11765
24.6221;2.66667
24.6283;2.27451
24.6345;3.13725
24.6407;2.60784
24.6469;2.84314
24.6531;3.19608
24.6593;2.94118
24.6656;1.92157
24.6718;3.07843
24.678;2.72549
24.6842;2.2549
24.6904;3.05882
24.6966;2.80392
24.7028;2.07843
24.709;2.76471
24.7152;2.7451
24.7214;2.01961
24.7277;2.7451
24.7339;2.37255
24.7401;1.39216
24.7463;1.80392
24.7525;2.54902
24.7587;2.01961
24.7649;1.78431
24.7711;2.27451
24.7773;1.96078
24.7835;1.98039
24.7898;2.66667
24.796;2.72549
24.8022;2.47059
24.8084;3.52941
24.8146;2.7451
24.8208;2.66667
24.827;3.15686
24.8332;2.92157
24.8394;2.45098
24.8456;3.23529
24.8519;3.07843
24.8581;2.64706
24.8643;3.07843
24.8705;3
24.8767;2.37255
24.8829;3.17647
24.8891;3.17647
24.8953;1.84314
24.9016;0.803922
24.9078;0
24.914;0.196078
24.9202;0.0784314
24.9265;0.509804
24.9327;1.54902
24.9389;2.27451
24.9452;3.47059
24.9514;3.17647
24.9576;2.68627
24.9638;3.41176
24.9701;3.62745
24.9763;2.86275
24.9825;3.15686
24.9887;3.66667
24.995;2.90196
25.0012;2.54902
25.0074;3.17647
25.0136;2.92157
25.0199;2.27451
25.0261;3.03922
25.0323;2.78431
25.0385;2.21569
25.0448;2.52941
25.051;2.7451
25.0572;2.13725
25.0634;2.19608
25.0697;2.56863
25.0759;2.15686
25.0821;1.41176
25.0883;2.5098
25.0946;2.13725
25.1008;1.37255
25.107;1.68627
25.1132;1.80392
25.1195;1.11765
25.1257;1.01961
25.1319;1.31373
25.1381;1.09804
25.1444;1.01961
25.1506;1.27451
25.1568;1.05882
25.163;0.647059
25.1693;1.03922
25.1755;1.07843
25.1817;0.784314
25.188;1.76471
25.1942;1.78431
25.2004;1.80392
25.2066;2.86275
25.2128;2.92157
25.219;2.88235
25.2251;3.80392
25.2313;3.88235
25.2374;3.54902
25.2436;4.56863
25.2498;4.41176
25.2559;3.62745
25.2621;4.13725
25.2683;4.41176
25.2744;3.39216
25.2806;4.09804
25.2868;4.21569
25.2929;3.64706
25.2991;3.43137
25.3053;3.90196
25.3114;3.5098
25.3176;3.39216
25.3238;3.68627
25.3299;3.21569
25.3361;2.86275
25.3422;3.35294
25.3484;3.17647
25.3546;2.56863
25.3607;3.19608
25.3669;3.17647
25.3731;2.56863
25.3792;3.31373
25.3854;2.96078
25.3916;2.47059
25.3977;2.98039
25.4039;2.7451
25.4101;2.2549
25.4162;3.05882
25.4224;2.90196
25.4286;2.35294
25.4347;2.72549
25.4409;2.92157
25.447;2.4902
25.4532;2.33333
25.4594;3.03922
25.4655;2.70588
25.4717;2.17647
25.4779;2.76471
25.484;2.76471
25.4902;1.84314
25.4964;2.68627
25.5025;3.01961
25.5087;2.52941
25.5149;2.41176
25.521;3.01961
25.5272;2.78431
25.5334;2.07843
25.5396;3.13725
25.5458;2.82353
25.5521;2.21569
25.5583;2.60784
25.5645;2.84314
25.5707;2.39216
25.5769;2.37255
25.5831;2.82353
25.5893;2.64706
25.5955;2.03922
25.6017;2.7451
25.6079;2.58824
25.6141;2.11765
25.6203;2.62745
25.6265;3.07843
25.6327;2.45098
25.6389;2.2549
25.6451;2.84314
25.6513;2.03922
25.6575;2.33333
25.6637;2.76471
25.6699;2.27451
25.6761;2.19608
25.6823;2.7451
25.6885;2.35294
25.6947;2.19608
25.7009;2.90196
25.7071;2.58824
25.7133;2.01961
25.7195;2.82353
25.7257;2.64706
25.7319;2
25.7381;2.5098
25.7443;2.11765
25.7505;1.37255
25.7567;2.19608
25.7629;2
25.7691;1.39216
25.7753;2.2549
25.7816;2.37255
25.7878;1.58824
25.794;2.15686
25.8002;2.29412
25.8064;2.09804
25.8126;2.19608
25.8188;3.01961
25.825;2.62745
25.8312;2.92157
25.8374;3.21569
25.8436;2.66667
25.8498;2.72549
25.8561;3.23529
25.8623;2.7451
25.8685;2.82353
25.8748;3.15686
25.881;2.80392
25.8872;2.39216
25.8934;3.27451
25.8997;3.01961
25.9059;2.5098
25.9121;2.86275
25.9183;1.98039
25.9246;0.0196078
25.9308;0.0784314
25.937;0
25.9432;0
25.9495;0.509804
25.9557;1.80392
25.9619;2.27451
25.9681;2.82353
25.9744;3.39216
25.9806;3
25.9868;2.47059
25.993;3.41176
25.9993;3.41176
26.0055;2.60784
26.0117;3.07843
26.0179;3.33333
26.0242;2.88235
26.0304;2.52941
26.0366;3.27451
26.0428;2.88235
26.0491;2.17647
26.0553;2.78431
26.0615;2.72549
26.0677;2.11765
26.074;2.45098
26.0802;2.43137
26.0864;2.29412
26.0926;1.98039
26.0989;2.29412
26.1051;2.07843
26.1113;1.39216
26.1175;2.15686
26.1238;1.98039
26.13;0.960784
26.1362;1.39216
26.1425;1.70588
26.1486;0.72549
26.1548;1.27451
26.161;1.29412
26.1671;0.411765
26.1733;0.607843
26.1794;1.15686
26.1856;0.784314
26.1917;0.960784
26.1979;1.27451
26.2041;1.01961
26.2102;1.39216
26.2164;2.05882
26.2225;2.17647
26.2287;2
26.2348;3.35294
26.241;3.45098
26.2472;3.39216
26.2533;4.21569
26.2595;4.45098
26.2656;3.54902
26.2718;4.56863
26.2779;4.31373
26.2841;3.80392
26.2903;4.47059
26.2964;4.07843
26.3026;3.39216
26.3087;4
26.3149;4.09804
26.321;3.11765
26.3272;3.7451
26.3334;3.84314
26.3395;2.96078
26.3457;3.13725
26.3518;3.39216
26.358;3.07843
26.3641;3.2549
26.3703;3.58824
26.3764;2.76471
26.3826;2.78431
26.3888;3.37255
26.3949;2.94118
26.4011;2.27451
26.4072;3.23529
26.4134;2.92157
26.4195;2.4902
26.4257;3
26.4319;2.66667
26.438;2.31373
26.4442;3.19608
26.4503;3
26.4565;2.33333
26.4627;2.7451
26.4689;3.11765
26.4751;2.58824
26.4813;2.43137
26.4875;3.13725
26.4937;2.94118
26.4999;2.19608
26.5061;2.96078
26.5124;3.09804
26.5186;2.2549
26.5248;2.90196
26.531;3.07843
26.5372;2.78431
26.5434;2.33333
26.5496;3.03922
26.5558;2.70588
26.562;2.2549
26.5682;2.84314
26.5745;3.09804
26.5807;2.37255
26.5869;2.72549
26.5931;3
26.5993;2.21569
26.6055;2.96078
26.6117;3.03922
26.6179;2.27451
26.6241;2.7451
26.6304;3.11765
26.6366;2.62745
26.6428;3.07843
26.649;2.90196
26.6552;2.62745
26.6614;2.35294
26.6676;3.07843
26.6738;2.70588
26.68;1.92157
26.6862;2.94118
26.6925;2.45098
26.6987;2.09804
26.7049;3
26.7111;2.60784
26.7173;1.84314
26.7235;2.56863
26.7297;2.07843
26.7359;1.54902
26.7421;2.19608
26.7483;1.82353
26.7546;1.35294
26.7608;2.27451
26.767;2.23529
26.7732;1.86275
26.7794;2.39216
26.7856;2.2549
26.7919;1.90196
26.7981;2.37255
26.8043;3.05882
26.8105;2.86275
26.8168;3.15686
26.823;3.31373
26.8292;2.80392
26.8354;2.68627
26.8417;3.27451
26.8479;3.17647
26.8541;2.45098
26.8603;3.35294
26.8666;2.78431
26.8728;2.68627
26.879;3.2549
26.8853;2.92157
26.8915;2.27451
26.8977;3.17647
26.9039;2.35294
26.9102;0.823529
26.9164;0.0392157
26.9226;0.0784314
26.9288;0.0588235
26.9351;0.372549
26.9413;2.15686
26.9475;3.23529
26.9537;2.96078
26.96;3.64706
26.9662;3.23529
26.9724;2.72549
26.9786;2.86275
26.9849;3.23529
26.9911;2.7451
26.9973;2.52941
27.0035;3.27451
27.0098;2.88235
27.016;2.27451
27.0222;3.07843
27.0284;2.96078
27.0347;2.21569
27.0409;2.45098
27.0471;2.56863
27.0533;2.37255
27.0596;1.96078
27.0658;2.60784
27.072;2.23529
27.0782;1.29412
27.0845;2.21569
27.0907;2.17647
27.0968;1.37255
27.103;2.11765
27.1091;1.7451
27.1153;0.803922
27.1214;1.52941
27.1276;1.54902
27.1338;0.882353
27.1399;0.803922
27.1461;0.921569
27.1522;0.313726
27.1584;0.745098
27.1645;0.745098
27.1707;0.509804
27.1769;0.509804
27.183;1.03922
27.1892;0.666667
27.1953;1.41176
27.2015;2.11765
27.2076;2.29412
27.2138;2.2549
27.22;3.21569
27.2261;3.52941
27.2323;3.56863
27.2384;4.47059
27.2446;4.29412
27.2507;3.84314
27.2569;4.96078
27.2631;4.58824
27.2692;4.2549
27.2754;4.56863
27.2815;4.27451
27.2877;3.70588
27.2938;4.11765
27.3;4.15686
27.3062;3.4902
27.3123;3.86275
27.3185;4.13725
27.3246;3.07843
27.3308;3.33333
27.3369;3.64706
27.3431;3.13725
27.3493;2.92157
27.3554;3.33333
27.3616;2.62745
27.3677;2.84314
27.3739;3.2549
27.38;2.7451
27.3862;2.41176
27.3923;3.2549
27.3985;3.11765
27.4047;2.31373
27.411;3.09804
27.4172;2.96078
27.4235;2.2549
27.4297;2.70588
27.436;3.03922
27.4422;2.72549
27.4484;2.45098
27.4547;3.21569
27.4609;2.80392
27.4672;2.27451
27.4734;3.09804
27.4796;3.19608
27.4859;2.56863
27.4921;2.62745
27.4984;3.17647
27.5046;2.80392
27.5108;2.27451
27.5171;3.01961
27.5233;2.86275
27.5296;1.98039
27.5358;2.70588
27.542;2.84314
27.5483;2.27451
27.5545;2.80392
27.5608;2.88235
27.567;2.56863
27.5732;2.4902
27.5795;3.03922
27.5857;2.84314
27.592;2.29412
27.5982;2.90196
27.6045;2.76471
27.6107;2.41176
27.6169;2.88235
27.6232;2.68627
27.6294;2.13725
27.6357;2.82353
27.6419;2.94118
27.6481;1.98039
27.6544;2.84314
27.6606;2.76471
27.6669;1.92157
27.6731;2.47059
27.6793;2.66667
27.6856;2.11765
27.6918;2.17647
27.6981;2.54902
27.7043;1.60784
27.7105;1.60784
27.7168;2.23529
27.7229;2.07843
27.7291;1.72549
27.7352;2.23529
27.7414;2
27.7476;2.05882
27.7537;2.98039
27.7599;2.76471
27.7661;2.39216
27.7722;3.21569
27.7784;3.07843
27.7846;2.54902
27.7907;3.21569
27.7969;3.09804
27.8031;2.29412
27.8092;3.23529
27.8154;3.05882
27.8215;2.45098
27.8277;2.90196
27.8339;3.05882
27.84;2.41176
27.8462;2.94118
27.8524;2.92157
27.8585;1.76471
27.8647;0.72549
27.8709;0.0980392
27.877;0.0392157
27.8832;0.27451
27.8894;1.70588
27.8955;2.5098
27.9017;2.58824
27.9079;3.52941
27.914;3.43137
27.9202;2.54902
27.9263;3.07843
27.9325;3.39216
27.9387;2.56863
27.9448;2.80392
27.951;3.17647
27.9572;2.66667
27.9633;2.43137
27.9695;3.09804
27.9757;2.7451
27.9818;2.03922
27.988;2.7451
27.9942;2.7451
28.0003;2.05882
28.0065;2.23529
28.0126;2.45098
28.0188;2.13725
28.025;1.7451
28.0311;2.43137
28.0373;2.07843
28.0435;1.27451
28.0496;2.07843
28.0558;2.03922
28.062;1.07843
28.0681;1.86275
28.0743;1.37255
28.0805;0.784314
28.0866;1.11765
28.0928;1.52941
28.099;0.647059
28.1051;0.980392
28.1113;0.960784
28.1174;0.568627
28.1236;0.843137
28.1298;1.21569
28.1359;1
28.1421;1.03922
28.1483;2.23529
28.1544;2.01961
28.1606;2.45098
28.1668;3.29412
28.1729;3.31373
28.1791;3.19608
28.1853;4.21569
28.1914;3.98039
28.1976;3.78431
28.2038;4.39216
28.2099;4.2549
28.2161;3.47059
28.2222;4.29412
28.2284;4.17647
28.2346;3.58824
28.2407;4.4902
28.2469;3.90196
28.2531;2.90196
28.2592;3.62745
28.2654;3.72549
28.2716;3.05882
28.2777;3.33333
28.2839;3.68627
28.2901;2.84314
28.2962;3.05882
28.3024;3.29412
28.3085;2.92157
28.3147;2.64706
28.3209;3.07843
28.327;2.52941
28.3332;2.66667
28.3394;3.29412
28.3456;2.78431
28.3519;2.41176
28.3581;3.2549
28.3644;3.07843
28.3707;2.2549
28.3769;3
28.3832;3.07843
28.3894;2.41176
28.3957;2.84314
28.4019;2.94118
28.4082;2.82353
28.4144;2.66667
28.4207;2.90196
28.427;2.60784
28.4332;1.98039
28.4395;2.70588
28.4457;2.94118
28.452;2.27451
28.4582;2.60784
28.4645;3.05882
28.4707;2.68627
28.477;2.13725
28.4833;2.80392
28.4895;2.82353
28.4958;2.2549
28.502;2.84314
28.5083;2.80392
28.5145;2.43137
28.5208;2.66667
28.5271;3
28.5333;2.62745
28.5396;2.47059
28.5458;3.15686
28.5521;2.60784
28.5583;2.21569
28.5646;2.90196
28.5708;2.76471
28.5771;2.07843
28.5834;2.96078
28.5896;2.82353
28.5959;2.09804
28.6021;2.54902
28.6084;2.66667
28.6146;2.09804
28.6209;2.64706
28.6272;2.80392
28.6334;2.11765
28.6397;2.43137
28.6459;2.88235
28.6522;1.84314
28.6584;2.47059
28.6646;2.52941
28.6708;1.94118
28.677;1.66667
28.6832;2.21569
28.6893;1.92157
28.6955;1.7451
28.7017;2.37255
28.7079;2.01961
28.7141;1.82353
28.7202;2.35294
28.7264;2.33333
28.7326;1.70588
28.7388;2.76471
28.7449;2.64706
28.7511;2.37255
28.7573;3.15686
28.7635;3.23529
28.7697;2.47059
28.7758;3
28.782;3.45098
28.7882;2.45098
28.7944;3.07843
28.8006;3.17647
28.8067;2.43137
28.8129;2.80392
28.8191;3.17647
28.8253;2.5098
28.8315;2.66667
28.8376;2.07843
28.8438;0.588235
28.85;0.0588235
28.8562;0.45098
28.8624;0
28.8685;0.235294
28.8747;1.94118
28.8809;2.86275
28.8871;2.52941
28.8933;3.35294
28.8994;3.2549
28.9056;2.78431
28.9118;2.90196
28.918;3.29412
28.9242;3.03922
28.9303;2.47059
28.9365;3.17647
28.9427;3.19608
28.9489;2.31373
28.9551;2.96078
28.9612;2.94118
28.9674;2.35294
28.9736;2.39216
28.9798;2.92157
28.9859;2.5098
28.9921;2.03922
28.9983;2.58824
29.0045;2.47059
29.0106;1.72549
29.0168;2.37255
29.023;2.23529
29.0291;1.60784
29.0353;1.96078
29.0415;2.13725
29.0477;1.66667
29.0538;1.19608
29.06;1.72549
29.0662;1.13725
29.0724;0.764706
29.0785;1.29412
29.0847;0.960784
29.0909;0.313726
29.097;1.05882
29.1032;1.15686
29.1094;0.647059
29.1156;1.41176
29.1217;1.47059
29.1279;1.05882
29.1341;2.19608
29.1402;2.2549
29.1464;2.23529
29.1526;3.47059
29.1588;3.60784
29.1649;3.11765
29.1711;3.78431
29.1773;4.19608
29.1835;3.96078
29.1896;3.96078
29.1958;4.47059
29.202;3.70588
29.2081;4.05882
29.2143;4.15686
29.2205;4
29.2267;3.33333
29.2328;4.13725
29.239;3.43137
29.2452;3.15686
29.2513;3.64706
29.2575;3.21569
29.2637;2.80392
29.2699;3.86275
29.276;3.45098
29.2822;2.54902
29.2885;3.33333
29.2947;3.01961
29.301;2.47059
29.3072;3.07843
29.3134;3.2549
29.3197;2.43137
29.3259;3.2549
29.3322;3.01961
29.3384;2.33333
29.3447;3
29.3509;3.11765
29.3572;2.68627
29.3634;2.52941
29.3697;3.13725
29.3759;2.82353
29.3822;2.31373
29.3884;3.37255
29.3947;3
29.4009;2.43137
29.4072;2.86275
29.4134;2.94118
29.4197;2.54902
29.4259;2.56863
29.4322;3.03922
29.4384;2.52941
29.4447;2.39216
29.4509;2.92157
29.4572;2.98039
29.4634;2.15686
29.4697;2.84314
29.4759;2.72549
29.4822;2.43137
29.4884;2.47059
29.4947;2.60784
29.5009;2.60784
29.5072;2.17647
29.5134;2.92157
29.5196;2.45098
29.5259;2.41176
29.5321;2.94118
29.5384;2.54902
29.5446;1.98039
29.5509;2.82353
29.5571;2.82353
29.5634;1.98039
29.5696;2.84314
29.5759;2.7451
29.5821;1.98039
29.5884;2.76471
29.5946;2.80392
29.6008;2.39216
29.607;2.86275
29.6132;2.72549
29.6193;2.21569
29.6255;2.54902
29.6317;2.76471
29.6378;2.31373
29.644;2.37255
29.6502;2.62745
29.6563;2.17647
29.6625;2.17647
29.6686;2.60784
29.6748;1.98039
29.681;1.76471
29.6871;2.23529
29.6933;1.4902
29.6995;1.62745
29.7056;2.35294
29.7118;2.05882
29.718;1.4902
29.7241;2.31373
29.7303;2.33333
29.7365;2.15686
29.7426;2.84314
29.7488;3
29.755;2.35294
29.7611;3
29.7673;3.07843
29.7734;2.7451
29.7796;3.60784
29.7858;3.05882
29.7919;2.37255
29.7981;2.82353
29.8043;3.11765
29.8104;2.35294
29.8166;2.62745
29.8228;3.19608
29.8289;3
29.8351;2.27451
29.8413;2.54902
29.8474;1.33333
29.8536;0
29.8597;0.0588235
29.8659;0.0392157
29.8721;0.0980392
29.8782;0.901961
29.8844;2.66667
29.8906;2.80392
29.8967;2.54902
29.9029;3.37255
29.9091;3.41176
29.9153;2.80392
29.9215;3.33333
29.9277;3.41176
29.9339;2.94118
29.9401;2.86275
29.9463;3.11765
29.9525;2.98039
29.9587;2.45098
29.9649;3.01961
29.9711;3
29.9773;2.27451
29.9835;2.64706
29.9897;2.70588
29.9959;2.13725
30.0021;2.19608
30.0083;2.54902
30.0145;2.17647
30.0207;2.13725
30.0269;2.11765
30.0331;1.82353
30.0393;1.37255
30.0455;2.09804
30.0517;1.70588
30.0579;0.901961
30.0641;1.58824
30.0703;1.11765
30.0765;0.529412
30.0827;1.39216
30.0889;1.11765
30.0951;0.313726
30.1013;0.882353
30.1076;1.09804
30.1138;0.372549
30.12;1.41176
30.1262;1.41176
30.1324;1.09804
30.1386;1.72549
30.1448;2.23529
30.151;2.03922
30.1572;2.92157
30.1634;3.52941
30.1696;3.33333
30.1758;3.60784
30.182;4.29412
30.1882;4.05882
30.1944;4.07843
30.2006;4.35294
30.2068;4.05882
30.213;3.64706
30.2192;4.23529
30.2254;4.13725
30.2316;3.29412
30.2379;3.88235
30.2441;3.5098
30.2503;3
30.2565;3.80392
30.2628;3.47059
30.269;2.56863
30.2752;3.27451
30.2814;3.43137
30.2877;2.68627
30.2939;3.43137
30.3001;3.23529
30.3063;2.58824
30.3126;3.13725
30.3188;3.21569
30.325;2.82353
30.3312;2.62745
30.3375;3.2549
30.3437;2.84314
30.3499;2.27451
30.3562;3.19608
30.3624;3.07843
30.3686;2.17647
30.3748;2.7451
30.3811;2.82353
30.3873;2.84314
30.3935;2.47059
30.3997;2.86275
30.406;2.70588
30.4122;2.09804
30.4184;3.17647
30.4246;2.86275
30.4309;2.29412
30.4371;2.76471
30.4433;3.09804
30.4495;2.47059
30.4558;2.27451
30.462;3.05882
30.4682;2.60784
30.4744;2.15686
30.4807;2.96078
30.4869;2.80392
30.4931;2.37255
30.4993;2.7451
30.5056;2.86275
30.5118;2.52941
30.518;2.33333
30.5242;2.84314
30.5305;2.29412
30.5367;2.43137
30.5429;2.98039
30.549;2.58824
30.5552;2.56863
30.5613;2.90196
30.5675;2.52941
30.5736;2.60784
30.5798;2.96078
30.5859;2.82353
30.5921;2.19608
30.5983;3.05882
30.6044;2.84314
30.6106;2.27451
30.6167;3
30.6229;2.68627
30.629;2.07843
30.6352;3.09804
30.6414;2.88235
30.6475;2.35294
30.6537;2.98039
30.6598;2.80392
30.666;1.90196
30.6721;2.27451
30.6783;2.2549
30.6845;1.76471
30.6906;1.66667
30.6968;2.09804
30.7029;1.72549
30.7091;2.05882
30.7152;2.2549
30.7214;2.01961
30.7276;1.92157
30.7337;2.43137
30.7399;2.41176
30.746;2.70588
30.7522;3.17647
30.7583;3.21569
30.7645;2.56863
30.7707;3.17647
30.7768;3.41176
30.783;2.45098
30.7891;3.13725
30.7953;2.88235
30.8014;2.39216
30.8076;2.96078
30.8138;2.94118
30.8199;2.45098
30.8261;2.90196
30.8322;3.27451
30.8384;2.56863
30.8445;1.94118
30.8507;1.03922
30.8569;0
30.8631;0.0588235
30.8693;0
30.8755;0.27451
30.8817;1.15686
30.888;2.54902
30.8942;3.29412
30.9004;3.03922
30.9066;2.84314
30.9128;3.62745
30.919;3.39216
30.9252;2.72549
30.9314;3.5098
30.9376;3.39216
30.9439;2.66667
30.9501;3.07843
30.9563;3.23529
30.9625;2.76471
30.9687;2.86275
30.9749;3.11765
30.9811;2.78431
30.9873;2.07843
30.9935;2.88235
30.9997;2.92157
31.006;1.98039
31.0122;2.43137
31.0184;2.4902
31.0246;1.64706
31.0308;2.33333
31.037;2.15686
31.0432;1.56863
31.0494;1.66667
31.0556;2.01961
31.0618;1.47059
31.0681;1.35294
31.0743;1.45098
31.0805;0.882353
31.0867;0.882353
31.0929;1.2549
31.0991;1.15686
31.1053;0.372549
31.1115;1.23529
31.1177;0.882353
31.124;0.843137
31.1302;1.98039
31.1364;1.88235
31.1426;1.5098
31.1488;2.64706
31.155;3.09804
31.1612;2.72549
31.1674;4.01961
31.1736;4.05882
31.1798;3.7451
31.186;4.21569
31.1922;4.35294
31.1983;3.7451
31.2045;4.62745
31.2107;4.60784
31.2169;3.94118
31.2231;4.03922
31.2293;4.29412
31.2355;3.72549
31.2417;3.80392
31.2478;3.98039
31.254;3.37255
31.2602;3.23529
31.2664;3.80392
31.2726;3.33333
31.2788;2.68627
31.285;3.4902
31.2912;3.33333
31.2973;2.62745
31.3035;3.21569
31.3097;3.29412
31.3159;2.64706
31.3221;2.62745
31.3283;3.19608
31.3345;2.86275
31.3407;2.33333
31.3468;3.11765
31.353;2.92157
31.3592;2.29412
31.3654;2.70588
31.3716;3.17647
31.3778;2.37255
31.384;2.54902
31.3902;3.07843
31.3963;2.4902
31.4025;2.31373
31.4087;2.96078
31.4149;3.01961
31.4211;2.39216
31.4273;2.84314
31.4335;3
31.4397;2.58824
31.4458;2.58824
31.452;3.15686
31.4582;2.64706
31.4644;2.35294
31.4706;3.07843
31.4768;2.66667
31.4829;2.43137
31.4891;3.05882
31.4952;2.92157
31.5013;2.23529
31.5075;2.96078
31.5136;3.05882
31.5197;2.54902
31.5259;2.90196
31.532;2.72549
31.5381;2.01961
31.5443;2.76471
31.5504;2.76471
31.5565;2.33333
31.5627;2.45098
31.5688;2.82353
31.5749;2.27451
31.5811;2.72549
31.5872;2.78431
31.5933;2.54902
31.5995;2.37255
31.6056;2.62745
31.6117;2.23529
31.6179;2.29412
31.624;2.84314
31.6301;2.47059
31.6363;2.15686
31.6424;2.72549
31.6485;2.64706
31.6547;2.2549
31.6608;2.52941
31.6669;2.13725
31.6731;1.60784
31.6792;2.27451
31.6853;2.05882
31.6915;1.33333
31.6976;2.47059
31.7037;2.11765
31.7099;1.52941
31.716;2.47059
31.7221;2.41176
31.7283;2
31.7344;2.58824
31.7405;2.98039
31.7467;2.4902
31.7528;3.09804
31.7589;3.37255
31.7651;2.90196
31.7712;2.78431
31.7774;3.37255
31.7835;2.88235
31.7897;2.39216
31.7959;3.13725
31.8021;3.11765
31.8084;2.27451
31.8146;2.90196
31.8208;3.11765
31.8271;2.88235
31.8333;2.47059
31.8395;1.80392
31.8458;0.254902
31.852;0.0196078
31.8582;0.0784314
31.8645;0.0784314
31.8707;0.411765
31.8769;2.21569
31.8832;3.29412
31.8894;3
31.8956;3.21569
31.9019;3.39216
31.9081;2.96078
31.9143;2.35294
31.9206;3.39216
31.9268;3.19608
31.933;2.54902
31.9393;3.03922
31.9455;3.01961
31.9517;2.41176
31.958;2.54902
31.9642;3.11765
31.9704;2.54902
31.9767;2.07843
31.9829;2.66667
31.9891;2.29412
31.9954;2.01961
32.0016;2.78431
32.0078;2.15686
32.0141;1.54902
32.0203;2.33333
32.0265;1.92157
32.0328;1.29412
32.039;2
32.0452;1.56863
32.0515;0.901961
32.0577;1.60784
32.0639;1.35294
32.0702;0.411765
32.0764;1.07843
32.0826;1.07843
32.0889;0.490196
32.0951;0.72549
32.1013;0.960784
32.1075;0.568627
32.1137;1.23529
32.1199;1.43137
32.126;1.13725
32.1322;1.70588
32.1384;2.35294
32.1445;2.70588
32.1507;2.70588
32.1568;3.76471
32.163;3.62745
32.1692;3.70588
32.1753;4.54902
32.1815;4.43137
32.1877;3.92157
32.1938;4.54902
32.2;4.13725
32.2062;3.88235
32.2123;4.70588
32.2185;4.41176
32.2247;3.58824
32.2308;4.09804
32.237;4.11765
32.2431;3.23529
32.2493;3.92157
32.2555;3.60784
32.2616;2.88235
32.2678;3.45098
32.274;3.78431
32.2801;2.92157
32.2863;2.90196
32.2925;3.43137
32.2986;2.94118
32.3048;2.60784
32.311;3.56863
32.3171;3.03922
32.3233;2.52941
32.3295;2.84314
32.3356;3.09804
32.3418;2.70588
32.3479;2.64706
32.3541;3.17647
32.3603;2.64706
32.3664;2.31373
32.3726;3.11765
32.3788;2.88235
32.3849;2.15686
32.3911;2.66667
32.3973;2.92157
32.4034;2.52941
32.4096;2.52941
32.4158;3.09804
32.4219;2.82353
32.4281;2.35294
32.4342;3.19608
32.4404;2.80392
32.4466;1.92157
32.4527;2.80392
32.4589;3.05882
32.4651;2.45098
32.4712;2.64706
32.4774;3.07843
32.4836;2.5098
32.4897;2.98039
32.4959;3.11765
32.5021;2.94118
32.5082;2.41176
32.5144;3.01961
32.5206;2.86275
32.5267;2.2549
32.5329;2.76471
32.539;2.5098
32.5452;2.09804
32.5514;3.09804
32.5575;2.76471
32.5637;2.09804
32.5699;2.94118
32.576;2.68627
32.5822;1.90196
32.5884;2.7451
32.5945;2.31373
32.6007;1.7451
32.6069;1.96078
32.613;2.19608
32.6192;1.47059
32.6254;2
32.6315;2.21569
32.6377;1.54902
32.6438;2.09804
32.65;2.62745
32.6562;2.01961
32.6623;2.54902
32.6685;2.94118
32.6747;2.92157
32.6808;3.03922
32.687;3.39216
32.6932;3.05882
32.6993;2.82353
32.7055;3.2549
32.7117;2.92157
32.7178;2.39216
32.724;3.17647
32.7302;2.90196
32.7364;2.41176
32.7427;3.11765
32.7489;2.98039
32.7552;2.56863
32.7614;2.76471
32.7677;2.66667
32.7739;1.27451
32.7802;0.137255
32.7864;0.117647
32.7927;0.0588235
32.7989;0.215686
32.8052;2.05882
32.8114;3.33333
32.8177;3.09804
32.8239;3.29412
32.8302;3.47059
32.8364;3
32.8427;2.62745
32.8489;3.23529
32.8552;3.15686
32.8614;2.23529
32.8677;3.07843
32.8739;3.37255
32.8802;2.54902
32.8864;2.4902
32.8927;2.78431
32.8989;2.88235
32.9051;2.31373
32.9114;2.78431
32.9176;2.47059
32.9239;1.88235
32.9301;2.52941
32.9364;2.39216
32.9426;1.62745
32.9489;2.01961
32.9551;1.96078
32.9614;1.4902
32.9676;1.92157
32.9739;2.13725
32.9801;1.35294
32.9864;1.43137
32.9926;1.31373
32.9989;0.960784
33.0051;0.882353
33.0114;1.27451
33.0176;0.823529
33.0239;0.568627
33.0301;0.882353
33.0364;0.784314
33.0426;0.803922
33.0488;1.58824
33.0549;1.43137
33.0611;1.31373
33.0673;2.4902
33.0734;2.29412
33.0796;2.45098
33.0858;3.66667
33.0919;3.78431
33.0981;3.37255
33.1043;4.29412
33.1104;4.37255
33.1166;3.5098
33.1228;4.60784
33.1289;4.47059
33.1351;3.72549
33.1412;4.15686
33.1474;4.21569
33.1536;3.64706
33.1597;4.15686
33.1659;4.07843
33.1721;3.33333
33.1782;3.43137
33.1844;3.70588
33.1906;3.37255
33.1967;3.09804
33.2029;3.39216
33.2091;2.94118
33.2152;3.2549
33.2214;3.41176
33.2276;3
33.2337;2.66667
33.2399;3.43137
33.246;3.23529
33.2522;2.47059
33.2584;3.13725
33.2645;3.17647
33.2707;2.54902
33.2769;2.62745
33.283;3.17647
33.2892;2.94118
33.2954;2.31373
33.3015;3.07843
33.3077;2.84314
33.3139;2.35294
33.32;3.07843
33.3262;3.09804
33.3323;2.45098
33.3385;2.64706
33.3447;2.96078
33.3508;2.64706
33.357;2.45098
33.3632;3.05882
33.3693;2.80392
33.3755;2.15686
33.3817;2.86275
33.3878;2.88235
33.394;2.27451
33.4002;2.54902
33.4063;3.11765
33.4125;2.68627
33.4187;2.29412
33.4248;3.05882
33.431;2.68627
33.4371;1.98039
33.4433;3.05882
33.4495;2.72549
33.4556;2.05882
33.4618;2.94118
33.468;2.80392
33.4741;2.21569
33.4803;2.68627
33.4865;2.60784
33.4926;1.98039
33.4988;2.70588
33.505;2.7451
33.5111;2.21569
33.5173;2.5098
33.5234;2.84314
33.5296;2.23529
33.5358;2.66667
33.5419;2.66667
33.5481;2.23529
33.5543;1.98039
33.5604;2.45098
33.5666;1.98039
33.5728;1.96078
33.5789;2.2549
33.5851;2.31373
33.5913;1.84314
33.5974;2.45098
33.6036;2.33333
33.6098;1.78431
33.6159;2.88235
33.6221;2.86275
33.6282;2.4902
33.6344;3.31373
33.6406;3.27451
33.6467;2.56863
33.6529;3.17647
33.6591;3
33.6652;2.47059
33.6714;3.31373
33.6776;2.98039
33.6839;2.72549
33.6901;2.90196
33.6963;3.23529
33.7025;2.62745
33.7087;3.01961
33.715;2.64706
33.7212;0.941176
33.7274;0.117647
33.7336;0.156863
33.7398;0.0588235
33.746;0.0196078
33.7523;1.7451
33.7585;2.94118
33.7647;2.76471
33.7709;3.4902
33.7771;3.52941
33.7833;2.84314
33.7896;3.01961
33.7958;3.35294
33.802;3.05882
33.8082;2.64706
33.8144;3.27451
33.8207;3.03922
33.8269;2.2549
33.8331;2.80392
33.8393;3
33.8455;2.31373
33.8517;2.27451
33.858;2.72549
33.8642;2.43137
33.8704;2.03922
33.8766;2.72549
33.8828;2.37255
33.8891;1.54902
33.8953;1.96078
33.9015;2.15686
33.9077;1.94118
33.9139;1.66667
33.9201;2.09804
33.9264;1.56863
33.9326;1.01961
33.9388;1.82353
33.945;1.13725
33.9512;0.960784
33.9575;1.45098
33.9637;0.921569
33.9699;0.45098
33.9761;1.19608
33.9823;1
33.9885;0.607843
33.9946;1.35294
34.0008;1.33333
34.0069;1.07843
34.0131;2
34.0192;2.29412
34.0254;2.21569
34.0315;3.33333
34.0377;3.47059
34.0438;3.47059
34.05;4.03922
34.0561;4.17647
34.0623;3.72549
34.0684;3.7451
34.0746;4.31373
34.0807;4.09804
34.0869;3.94118
34.093;4.27451
34.0992;3.90196
34.1053;3.4902
34.1115;3.7451
34.1176;3.4902
34.1238;3.4902
34.1299;4.05882
34.1361;3.33333
34.1422;2.70588
34.1484;3.60784
34.1545;3.15686
34.1607;2.90196
34.1668;3.31373
34.173;3.05882
34.1791;2.2549
34.1852;3.07843
34.1914;3.33333
34.1975;3
34.2037;3.35294
34.2098;2.94118
34.216;2.41176
34.2221;3.05882
34.2283;2.96078
34.2344;2.66667
34.2406;2.64706
34.2467;3.09804
34.2529;2.80392
34.259;2.62745
34.2652;3
34.2713;2.90196
34.2775;2.31373
34.2836;2.90196
34.2898;2.96078
34.2959;2.60784
34.3021;2.54902
34.3083;2.90196
34.3145;2.66667
34.3207;2.2549
34.327;3.13725
34.3332;2.68627
34.3394;2.2549
34.3456;2.80392
34.3518;2.78431
34.358;2.45098
34.3642;2.64706
34.3704;3.07843
34.3766;2.41176
34.3828;2.23529
34.389;2.96078
34.3952;2.82353
34.4014;2.23529
34.4076;2.7451
34.4138;2.84314
34.42;2.31373
34.4262;2.43137
34.4324;2.86275
34.4386;2.56863
34.4448;2.58824
34.451;2.88235
34.4572;2.56863
34.4634;2.27451
34.4696;2.72549
34.4758;2.66667
34.482;2.13725
34.4882;2.84314
34.4944;2.47059
34.5006;2.23529
34.5068;2.86275
34.513;2.54902
34.5192;1.86275
34.5254;2.2549
34.5316;2.03922
34.5378;1.4902
34.544;2.13725
34.5502;2.31373
34.5564;1.52941
34.5627;1.94118
34.5689;2.33333
34.5751;1.5098
34.5813;2.43137
34.5875;2.58824
34.5937;2.41176
34.5999;2.96078
34.6061;3.17647
34.6123;3
34.6185;3
34.6246;3.23529
34.6308;2.86275
34.637;2.39216
34.6432;3.17647
34.6494;2.88235
34.6556;2.31373
34.6618;2.98039
34.668;2.66667
34.6741;2.45098
34.6803;3.41176
34.6865;3.13725
34.6927;1.86275
34.6989;1.66667
34.7051;0.352941
34.7113;0.0588235
34.7175;0.0392157
34.7236;0.176471
34.7298;0.745098
34.736;1.7451
34.7422;3.31373
34.7484;3.2549
34.7546;2.54902
34.7608;3.39216
34.767;3.35294
34.7731;2.80392
34.7793;2.94118
34.7855;3.41176
34.7917;2.96078
34.7979;2.5098
34.8041;2.94118
34.8103;2.94118
34.8165;2.11765
34.8226;3.03922
34.8288;2.96078
34.835;2.29412
34.8412;2.45098
34.8474;2.52941
34.8536;2.23529
34.8598;2.01961
34.866;2.5098
34.8721;2.29412
34.8783;1.4902
34.8845;2.29412
34.8907;2.15686
34.8969;1.23529
34.9031;2
34.9093;1.68627
34.9155;0.921569
34.9216;1.47059
34.9278;1.5098
34.9339;1
34.9401;0.862745
34.9462;1.09804
34.9524;0.568627
34.9585;1
34.9647;1.29412
34.9708;0.882353
34.9769;1.01961
34.9831;2.01961
34.9892;1.64706
34.9954;2.03922
35.0015;2.76471
35.0076;2.72549
35.0138;2.78431
35.0199;4.17647
35.0261;4.17647
35.0322;3.60784
35.0384;4.05882
35.0445;4.2549
35.0506;3.56863
35.0568;4.27451
35.0629;4.21569
35.0691;3.41176
35.0752;4.19608
35.0813;3.84314
35.0875;2.90196
35.0936;3.64706
35.0998;3.78431
35.1059;3.21569
35.1121;3.07843
35.1182;3.60784
35.1243;2.70588
35.1305;3.13725
35.1366;3.29412
35.1428;2.86275
35.1489;2.80392
35.155;3.35294
35.1612;2.94118
35.1673;2.72549
35.1735;3.17647
35.1796;2.68627
35.1858;2.35294
35.1919;3.15686
35.198;2.92157
35.2042;2.19608
35.2103;2.66667
35.2165;2.92157
35.2226;2.56863
35.2287;2.88235
35.2349;3.13725
35.2411;2.78431
35.2474;2.2549
35.2536;3.03922
35.2598;2.92157
35.2661;1.88235
35.2723;2.96078
35.2785;2.86275
35.2848;2.41176
35.291;2.54902
35.2972;3.05882
35.3035;2.80392
35.3097;2.17647
35.3159;3.07843
35.3222;2.64706
35.3284;2.05882
35.3346;2.94118
35.3409;2.82353
35.3471;2.2549
35.3533;2.60784
35.3596;3.19608
35.3658;2.68627
35.372;2.31373
35.3783;2.92157
35.3845;2.88235
35.3907;2.27451
35.3969;2.98039
35.4032;2.60784
35.4094;2.21569
35.4156;2.88235
35.4219;2.72549
35.4281;2.2549
35.4343;2.82353
35.4406;2.94118
35.4468;2.19608
35.453;2.96078
35.4593;3.05882
35.4655;2.29412
35.4717;2.5098
35.478;2.7451
35.4842;2.52941
35.4904;2.66667
35.4967;2.94118
35.5029;2.5098
35.5091;2.35294
35.5154;2.64706
35.5216;2.35294
35.5278;1.82353
35.5341;2.35294
35.5403;1.70588
35.5465;1.64706
35.5528;2.43137
35.559;2.23529
35.5652;1.62745
35.5714;2.45098
35.5776;2.37255
35.5838;1.96078
35.59;2.98039
35.5962;3.05882
35.6024;2.60784
35.6086;3.21569
35.6148;3.23529
35.621;2.5098
35.6272;3.47059
35.6334;3.19608
35.6396;2.68627
35.6458;3.01961
35.652;3.2549
35.6582;2.78431
35.6644;3.09804
35.6706;3.39216
35.6768;2.72549
35.683;2.72549
35.6892;3
35.6954;1.66667
35.7016;0.27451
35.7078;0.0588235
35.714;0
35.7202;0.0588235
35.7264;0.666667
35.7326;1.84314
35.7388;2.41176
35.745;2.98039
35.7513;3.54902
35.7575;3.29412
35.7637;2.84314
35.7699;3.60784
35.7761;3.31373
35.7823;2.62745
35.7885;3.2549
35.7947;3.37255
35.8009;2.70588
35.8071;2.96078
35.8133;3.01961
35.8195;2.84314
35.8257;2.21569
35.8319;2.92157
35.8381;2.62745
35.8443;2.01961
35.8505;2.56863
35.8567;2.54902
35.8629;1.68627
35.8691;2.5098
35.8753;2.2549
35.8814;1.52941
35.8876;2.03922
35.8938;2.45098
35.9;1.5098
35.9062;1.78431
35.9123;1.76471
35.9185;1.01961
35.9247;1.11765
35.9309;1.29412
35.9371;0.901961
35.9432;0.45098
35.9494;1.19608
35.9556;0.745098
35.9618;0.72549
35.968;1.37255
35.9741;1.2549
35.9803;1.19608
35.9865;2.05882
35.9927;2.11765
35.9989;2.27451
36.005;3.37255
36.0112;3.33333
36.0174;2.96078
36.0236;4
36.0298;4.23529
36.0359;3.58824
36.0421;4.35294
36.0483;4.41176
36.0545;3.58824
36.0607;4.05882
36.0668;4.2549
36.073;3.72549
36.0792;4
36.0854;4.19608
36.0916;3.33333
36.0977;3.45098
36.1039;3.68627
36.1101;3.23529
36.1163;3
36.1225;3.5098
36.1286;2.94118
36.1348;3
36.141;3.31373
36.1472;3.09804
36.1534;2.7451
36.1595;3.27451
36.1657;2.84314
36.1719;2.66667
36.1781;3.17647
36.1844;2.94118
36.1906;2.29412
36.1969;3.05882
36.2031;3.11765
36.2094;2.37255
36.2156;2.58824
36.2219;2.98039
36.2282;2.58824
36.2344;2.5098
36.2407;3.05882
36.2469;2.78431
36.2532;2.45098
36.2594;3
36.2657;2.92157
36.2719;2.35294
36.2782;2.72549
36.2845;2.92157
36.2907;2.60784
36.297;2.35294
36.3032;2.90196
36.3095;2.58824
36.3157;2.2549
36.322;2.84314
36.3283;2.88235
36.3345;2.09804
36.3408;2.68627
36.347;2.86275
36.3533;2.27451
36.3595;2.82353
36.3658;3.03922
36.372;2.4902
36.3783;2.45098
36.3846;3.03922
36.3908;2.5098
36.3971;2.35294
36.4033;2.84314
36.4096;2.54902
36.4158;2.41176
36.4221;2.94118
36.4284;2.54902
36.4346;2.11765
36.4409;2.96078
36.4471;2.43137
36.4534;2.17647
36.4596;2.94118
36.4659;2.7451
36.4721;1.94118
36.4784;2.64706
36.4847;2.7451
36.4909;2.09804
36.4971;2.80392
36.5033;2.66667
36.5095;2.17647
36.5158;2.4902
36.522;2.60784
36.5282;1.72549
36.5344;2.39216
36.5406;2.13725
36.5468;1.68627
36.553;1.88235
36.5592;2.07843
36.5654;1.96078
36.5716;1.7451
36.5779;2.45098
36.5841;1.82353
36.5903;1.94118
36.5965;2.82353
36.6027;2.82353
36.6089;2.56863
36.6151;3.19608
36.6213;2.88235
36.6275;2.52941
36.6338;3.35294
36.64;3
36.6462;2.5098
36.6524;3.19608
36.6586;3.13725
36.6648;2.70588
36.671;2.76471
36.6772;3.01961
36.6834;2.90196
36.6896;2.7451
36.6959;3.17647
36.7021;2.23529
36.7083;0.764706
36.7145;0.117647
36.7207;0.0392157
36.7269;0.0392157
36.7331;0.372549
36.7393;1.4902
36.7455;2.2549
36.7517;2.52941
36.758;3.29412
36.7642;3.15686
36.7704;2.70588
36.7766;3.43137
36.7828;3.39216
36.789;2.58824
36.7952;3.09804
36.8014;3.29412
36.8076;2.86275
36.8138;2.4902
36.82;2.98039
36.8261;2.7451
36.8323;2.19608
36.8384;2.90196
36.8446;2.64706
36.8507;2.07843
36.8569;2.45098
36.8631;2.43137
36.8692;1.84314
36.8754;2.37255
36.8815;2.27451
36.8877;1.64706
36.8938;1.80392
36.9;2.03922
36.9062;1.29412
36.9123;1.56863
36.9185;1.76471
36.9246;1.11765
36.9308;0.901961
36.9369;1.60784
36.9431;1.03922
36.9492;0.901961
36.9554;1.07843
36.9616;0.921569
36.9677;0.647059
36.9739;1.41176
36.98;1.33333
36.9862;0.784314
36.9923;2.13725
36.9985;2.41176
37.0047;2.29412
37.0108;3.33333
37.017;3.56863
37.0231;3.13725
37.0293;3.76471
37.0354;4.39216
37.0416;3.84314
37.0478;4.37255
37.0539;4.52941
37.0601;4.07843
37.0662;4.13725
37.0724;4.41176
37.0785;3.62745
37.0847;4.11765
37.0909;4.11765
37.097;3.4902
37.1032;3.62745
37.1093;4.05882
37.1155;3.62745
37.1217;3.66667
37.1279;3.80392
37.1342;3.27451
37.1404;2.84314
37.1466;3.54902
37.1529;3.33333
37.1591;2.76471
37.1654;3.39216
37.1716;3.17647
37.1779;2.60784
37.1841;2.88235
37.1903;3.23529
37.1966;2.72549
37.2028;2.43137
37.2091;3.27451
37.2153;3
37.2215;2.33333
37.2278;3.13725
37.234;3.17647
37.2403;2.56863
37.2465;2.68627
37.2527;3.52941
37.259;2.80392
37.2652;2.41176
37.2715;3.09804
37.2777;2.90196
37.2839;2.23529
37.2902;3.01961
37.2964;3.19608
37.3027;2.37255
37.3089;2.88235
37.3152;2.96078
37.3214;2.66667
37.3276;2.5098
37.3339;2.86275
37.3401;2.76471
37.3464;2.35294
37.3526;3.27451
37.3588;2.98039
37.3651;2.41176
37.3713;3.19608
37.3776;2.88235
37.3838;2.2549
37.39;2.84314
37.3963;2.98039
37.4025;2.45098
37.4088;3.05882
37.415;2.96078
37.4212;2.33333
37.4275;2.76471
37.4337;3.09804
37.4399;2.37255
37.4461;2.33333
37.4522;3.09804
37.4584;2.4902
37.4646;2.5098
37.4707;3.05882
37.4769;2.76471
37.483;2.15686
37.4892;2.70588
37.4954;2.03922
37.5015;1.86275
37.5077;2.11765
37.5139;2
37.52;1.43137
37.5262;2.41176
37.5324;2.39216
37.5385;1.70588
37.5447;2.52941
37.5509;2.37255
37.557;1.78431
37.5632;2.94118
37.5693;3.13725
37.5755;2.78431
37.5817;3.56863
37.5878;3.27451
37.594;2.5098
37.6002;3.07843
37.6063;3.13725
37.6125;2.80392
37.6187;2.76471
37.6248;3.17647
37.631;2.60784
37.6372;2.84314
37.6433;3.2549
37.6495;2.70588
37.6557;2.66667
37.6618;3.15686
37.668;2.29412
37.6741;0.54902
37.6803;0.568627
37.6865;0.0392157
37.6926;0.0196078
37.6988;0.803922
37.705;2.35294
37.7111;3.21569
37.7173;3.43137
37.7235;3.92157
37.7296;3.39216
37.7358;2.58824
37.742;3.11765
37.7481;3.09804
37.7543;2.35294
37.7605;2.78431
37.7667;3.01961
37.7729;2.62745
37.7792;2.23529
37.7854;2.98039
37.7916;2.82353
37.7978;1.92157
37.804;2.78431
37.8102;2.66667
37.8164;1.88235
37.8226;2.56863
37.8288;2.43137
37.835;2.05882
37.8412;1.76471
37.8474;2.27451
37.8536;2
37.8598;1.37255
37.866;2.11765
37.8722;1.62745
37.8784;0.882353
37.8846;1.80392
37.8908;1.47059
37.897;0.764706
37.9032;1.2549
37.9094;0.921569
37.9156;0.352941
37.9218;1.01961
37.928;1.05882
37.9342;0.294118
37.9404;1.03922
37.9466;1.07843
37.9528;0.862745
37.959;1.7451
37.9652;2.23529
37.9714;1.96078
37.9776;2.54902
37.9838;3.41176
37.99;3.39216
37.9962;3.7451
38.0024;4.21569
38.0087;3.96078
38.0149;3.88235
38.0211;4.41176
38.0273;4.27451
38.0335;3.72549
38.0397;4.23529
38.0459;4.07843
38.0521;3.39216
38.0583;4.31373
38.0645;3.94118
38.0707;3.17647
38.0769;3.86275
38.0831;3.47059
38.0893;2.88235
38.0954;3.70588
38.1016;3.60784
38.1078;2.68627
38.114;3.23529
38.1202;3.4902
38.1264;2.84314
38.1326;2.76471
38.1388;3.23529
38.145;2.92157
38.1512;2.41176
38.1574;3.13725
38.1636;3.13725
38.1698;2.39216
38.176;2.96078
38.1822;3.17647
38.1884;2.62745
38.1946;2.52941
38.2008;2.94118
38.207;2.78431
38.2132;2.35294
38.2193;3.2549
38.2255;2.72549
38.2317;2.39216
38.2379;2.88235
38.2441;3.13725
38.2503;2.60784
38.2565;2.58824
38.2627;3.07843
38.2689;2.92157
38.2751;2.21569
38.2813;3.07843
38.2875;2.98039
38.2937;2.09804
38.2999;2.62745
38.3061;2.86275
38.3123;2.52941
38.3185;2.56863
38.3247;2.86275
38.3309;2.27451
38.3371;2.70588
38.3433;2.98039
38.3494;2.5098
38.3556;2.21569
38.3618;2.82353
38.368;2.37255
38.3742;2.47059
38.3804;2.84314
38.3865;2.52941
38.3927;2.15686
38.3988;2.86275
38.405;2.66667
38.4111;2.33333
38.4173;2.7451
38.4234;2.60784
38.4296;1.84314
38.4357;2.66667
38.4419;2.29412
38.448;2.01961
38.4542;2.01961
38.4603;1.94118
38.4665;1.4902
38.4726;1.96078
38.4788;2.2549
38.4849;1.70588
38.4911;1.84314
38.4972;2.45098
38.5034;2
38.5095;2.54902
38.5157;3.03922
38.5218;2.98039
38.528;2.66667
38.5341;3.39216
38.5403;2.70588
38.5464;2.82353
38.5526;3.33333
38.5587;3.05882
38.5649;2.62745
38.571;3.21569
38.5772;3.07843
38.5833;2.47059
38.5895;3.35294
38.5956;2.94118
38.6018;2.33333
38.6079;2.56863
38.6141;1.43137
38.6202;0.0784314
38.6264;0.0784314
38.6325;0.0588235
38.6387;0.0980392
38.6448;1.13725
38.651;3.09804
38.6571;3.2549
38.6633;2.92157
38.6694;3.27451
38.6756;3.31373
38.6817;2.4902
38.6879;3
38.6941;3.33333
38.7003;2.64706
38.7064;2.64706
38.7126;3.33333
38.7188;2.7451
38.725;2.29412
38.7312;2.80392
38.7374;2.64706
38.7436;2.05882
38.7498;2.45098
38.756;2.45098
38.7622;2.19608
38.7684;1.92157
38.7746;2.56863
38.7808;2.21569
38.787;1.68627
38.7932;2.11765
38.7994;2.11765
38.8056;1.37255
38.8118;1.76471
38.818;1.78431
38.8242;0.843137
38.8303;1.41176
38.8365;1.39216
38.8427;0.705882
38.8489;0.941176
38.8551;1.01961
38.8613;0.54902
38.8675;0.901961
38.8737;1.13725
38.8799;1.03922
38.8861;0.803922
38.8923;1.39216
38.8985;1.33333
38.9047;1.41176
38.9109;2.37255
38.9171;2.56863
38.9233;2.58824
38.9295;3.58824
38.9357;3.68627
38.9419;3.27451
38.9481;4.13725
38.9543;4.11765
38.9604;3.66667
38.9666;4.7451
38.9728;4.41176
38.979;3.54902
38.9852;4.21569
38.9914;4.21569
38.9976;3.37255
39.0038;3.82353
39.01;3.80392
39.0163;3.09804
39.0225;3.31373
39.0287;3.56863
39.0349;3.19608
39.0411;3.11765
39.0473;3.27451
39.0536;2.84314
39.0598;2.92157
39.066;3.21569
39.0722;2.90196
39.0784;2.33333
39.0847;3.09804
39.0909;2.78431
39.0971;2.52941
39.1033;3.03922
39.1095;2.64706
39.1157;2.23529
39.122;3.15686
39.1282;2.80392
39.1344;2.31373
39.1406;2.5098
39.1468;2.80392
39.1531;2.47059
39.1593;2.41176
39.1655;2.7451
39.1717;2.76471
39.1779;2.13725
39.1841;2.96078
39.1904;2.90196
39.1966;2.07843
39.2028;2.70588
39.209;2.92157
39.2152;2.60784
39.2215;2.43137
39.2277;3.07843
39.2339;2.70588
39.2401;2.11765
39.2463;2.92157
39.2525;2.94118
39.2588;2.37255
39.265;2.94118
39.2712;2.76471
39.2774;2.52941
39.2836;2.56863
39.2898;2.66667
39.2961;2.4902
39.3023;2.09804
39.3085;3.09804
39.3147;2.94118
39.3209;1.94118
39.327;2.90196
39.3331;2.72549
39.3393;1.94118
39.3454;2.56863
39.3515;2.70588
39.3577;2.29412
39.3638;2.58824
39.3699;2.82353
39.376;2.35294
39.3822;2.82353
39.3883;2.76471
39.3944;2.23529
39.4005;2.15686
39.4067;2.94118
39.4128;2.13725
39.4189;2.11765
39.425;2.5098
39.4312;1.84314
39.4373;1.56863
39.4434;2.29412
39.4495;1.86275
39.4557;1.66667
39.4618;2.31373
39.4679;1.94118
39.4741;1.70588
39.4802;2.47059
39.4863;2.2549
39.4924;2.07843
39.4986;2.94118
39.5047;3.07843
39.5108;2.43137
39.5169;3.17647
39.5231;3.15686
39.5292;2.56863
39.5353;3
39.5414;3.09804
39.5476;2.35294
39.5537;2.94118
39.5598;3.03922
39.5659;2.62745
39.5721;2.76471
39.5782;3.21569
39.5843;2.90196
39.5905;2.23529
39.5966;2.39216
39.6027;1.13725
39.6088;0.0784314
39.615;0.0588235
39.6211;0
39.6272;0.176471
39.6334;1.5098
39.6397;2.92157
39.6459;2.94118
39.6521;2.76471
39.6583;3.5098
39.6646;3.43137
39.6708;2.62745
39.677;3.09804
39.6832;3.33333
39.6895;2.78431
39.6957;2.66667
39.7019;3.21569
39.7081;2.82353
39.7144;2.39216
39.7206;3.05882
39.7268;2.84314
39.733;2.03922
39.7393;2.64706
39.7455;2.70588
39.7517;2.05882
39.7579;2.21569
39.7642;2.60784
39.7704;2.05882
39.7766;1.56863
39.7829;2.23529
39.7891;1.82353
39.7953;1.4902
39.8015;2
39.8078;1.7451
39.814;0.980392
39.8202;1.7451
39.8264;1.13725
39.8327;0.745098
39.8389;1.37255
39.8451;1.03922
39.8513;0.411765
39.8576;1.11765
39.8638;1.23529
39.87;0.647059
39.8762;1.60784
39.8825;1.70588
39.8887;1.29412
39.8949;2.23529
39.9011;2.5098
39.9074;2.4902
39.9136;3.41176
39.9198;3.5098
39.926;3.19608
39.9323;3.72549
39.9385;4.27451
39.9447;4.03922
39.9509;3.72549
39.9571;4.41176
39.9633;3.7451
39.9695;3.76471
39.9757;4.17647
39.9819;3.86275
39.9881;3.33333
39.9943;3.90196
40.0005;3.35294
40.0067;3.03922
40.0128;3.76471
40.019;3.45098
40.0252;2.54902
40.0314;3.47059
40.0376;3.43137
40.0438;2.72549
40.05;3.5098
40.0562;3.31373
40.0624;2.58824
40.0686;3.13725
40.0748;3.19608
40.081;2.68627
40.0872;2.72549
40.0934;2.94118
40.0996;2.62745
40.1058;2.29412
40.112;3.21569
40.1182;3
40.1244;2.27451
40.1306;2.80392
40.1367;3.01961
40.1429;2.52941
40.1491;2.66667
40.1553;3
40.1615;2.68627
40.1677;2.27451
40.1739;3.17647
40.1801;2.98039
40.1863;2.05882
40.1925;2.88235
40.1987;2.98039
40.2049;2.52941
40.2111;2.56863
40.2173;2.92157
40.2235;2.52941
40.2297;2.39216
40.2359;3.03922
40.2421;2.66667
40.2483;2.17647
40.2545;2.80392
40.2606;2.76471
40.2667;2.15686
40.2729;2.37255
40.279;2.72549
40.2852;2.17647
40.2913;2.70588
40.2974;3
40.3036;2.13725
40.3097;2.23529
40.3159;2.94118
40.322;2.76471
40.3282;2.43137
40.3343;2.82353
40.3404;2.4902
40.3466;2.41176
40.3527;2.76471
40.3589;2.72549
40.365;2.09804
40.3711;2.96078
40.3773;2.52941
40.3834;2.33333
40.3896;3
40.3957;3.01961
40.4019;1.94118
40.408;2.41176
40.4141;2.39216
40.4203;1.37255
40.4264;2.03922
40.4326;2.11765
40.4387;1.54902
40.4448;2.13725
40.451;2.31373
40.4571;1.41176
40.4633;2.37255
40.4694;2.60784
40.4756;2.13725
40.4817;2.41176
40.4878;3.2549
40.494;2.96078
40.5001;3.11765
40.5063;3.43137
40.5124;2.7451
40.5185;2.66667
40.5247;3.35294
40.5308;3.03922
40.537;2.35294
40.5431;3.37255
40.5493;2.92157
40.5554;2.52941
40.5615;3.64706
40.5677;3.23529
40.574;2.11765
40.5802;2.03922
40.5864;1.17647
40.5927;0.117647
40.5989;0.0392157
40.6051;0.0980392
40.6114;0.176471
40.6176;0.960784
40.6238;2.86275
40.6301;3.03922
40.6363;2.66667
40.6425;3.23529
40.6488;3.29412
40.655;2.94118
40.6612;2.94118
40.6675;3.31373
40.6737;3.01961
40.6799;2.64706
40.6862;3.19608
40.6924;3.05882
40.6986;2.35294
40.7049;2.72549
40.7111;2.84314
40.7173;2.23529
40.7236;2.39216
40.7298;2.84314
40.736;2.31373
40.7423;1.82353
40.7485;2.58824
40.7547;2.19608
40.761;1.4902
40.7672;2.15686
40.7734;2.15686
40.7797;1.37255
40.7859;1.90196
40.7921;1.76471
40.7984;1.09804
40.8046;1.62745
40.8108;1.4902
40.8171;0.941176
40.8233;0.980392
40.8295;1.15686
40.8358;0.627451
40.842;0.803922
40.8482;1.29412
40.8545;1.27451
40.8607;0.882353
40.8669;1.52941
40.8732;1.66667
40.8794;1.66667
40.8856;2.7451
40.8918;2.86275
40.8979;2.66667
40.9041;3.64706
40.9102;4.01961
40.9164;3.43137
40.9226;4.47059
40.9287;4.37255
40.9349;3.56863
40.9411;4.29412
40.9472;4.4902
40.9534;3.64706
40.9596;4.33333
40.9657;4.11765
40.9719;3.17647
40.9781;3.72549
40.9842;3.84314
40.9904;3.39216
40.9965;3.09804
41.0027;3.64706
41.0089;2.88235
41.015;3.43137
41.0212;3.82353
41.0274;2.78431
41.0335;2.76471
41.0397;3.35294
41.0459;3.09804
41.052;2.54902
41.0582;2.98039
41.0644;2.92157
41.0705;2.56863
41.0767;2.78431
41.0829;3.11765
41.089;2.70588
41.0952;2.35294
41.1013;3.43137
41.1075;2.86275
41.1137;2.2549
41.1198;3.05882
41.126;3.07843
41.1322;2.29412
41.1383;2.70588
41.1445;3.11765
41.1507;2.66667
41.1568;2.35294
41.163;3.01961
41.1692;2.72549
41.1753;2.21569
41.1815;2.90196
41.1876;2.88235
41.1938;1.96078
41.2;2.72549
41.2061;2.84314
41.2122;2.56863
41.2184;2.5098
41.2245;3.03922
41.2306;2.82353
41.2368;1.92157
41.2429;2.94118
41.249;2.66667
41.2552;2.07843
41.2613;3.01961
41.2674;2.80392
41.2736;2.35294
41.2797;2.70588
41.2858;2.60784
41.292;2.27451
41.2981;3.09804
41.3042;2.76471
41.3104;2.21569
41.3165;2.66667
41.3226;2.78431
41.3288;1.96078
41.3349;2.39216
41.341;2.84314
41.3472;2.29412
41.3533;2.47059
41.3594;3
41.3656;2.52941
41.3717;2.64706
41.3778;2.86275
41.384;2.35294
41.3901;2.64706
41.3963;2.72549
41.4024;2.54902
41.4085;1.70588
41.4147;2.4902
41.4208;2.05882
41.4269;1.43137
41.4331;2.17647
41.4392;2.07843
41.4453;1.58824
41.4515;2.47059
41.4576;2.15686
41.4637;1.7451
41.4699;2.66667
41.476;2.84314
41.4821;2.43137
41.4883;3.07843
41.4944;3.35294
41.5005;2.4902
41.5067;3.41176
41.5129;3.39216
41.5191;2.72549
41.5253;3.09804
41.5316;3.37255
41.5378;2.96078
41.5441;2.82353
41.5503;3.47059
41.5565;3.13725
41.5628;2.21569
41.569;3.2549
41.5753;3.27451
41.5815;2.11765
41.5877;1.23529
41.594;0.529412
41.6002;0.0980392
41.6065;0.0784314
41.6127;0.313726
41.6189;0.823529
41.6252;2.15686
41.6314;3.4902
41.6377;3.52941
41.6439;2.86275
41.6502;2.92157
41.6564;3.39216
41.6626;3.01961
41.6689;2.58824
41.6751;3.43137
41.6814;3.07843
41.6876;2.29412
41.6938;3.2549
41.7001;3.09804
41.7063;2.33333
41.7126;2.70588
41.7188;2.84314
41.725;2.31373
41.7313;1.98039
41.7375;2.62745
41.7438;1.88235
41.75;1.86275
41.7562;2.64706
41.7625;1.94118
41.7687;1.76471
41.775;2.09804
41.7812;1.78431
41.7874;1.27451
41.7937;1.88235
41.7999;1.41176
41.8062;0.803922
41.8124;1.33333
41.8187;1.21569
41.8249;0.588235
41.8311;1
41.8372;0.901961
41.8434;0.45098
41.8496;1.11765
41.8557;1.11765
41.8619;0.647059
41.868;1.21569
41.8742;1.72549
41.8804;1.94118
41.8865;2.35294
41.8927;3.11765
41.8989;3
41.905;3.2549
41.9112;4.01961
41.9174;3.86275
41.9235;4.09804
41.9297;4.4902
41.9359;4.43137
41.942;3.94118
41.9482;4.47059
41.9543;4.23529
41.9605;3.72549
41.9667;4.27451
41.9728;3.80392
41.979;3.21569
41.9852;3.94118
41.9913;3.68627
41.9975;3.09804
42.0037;3.62745
42.0098;3.64706
42.016;2.78431
42.0222;3.41176
42.0283;3.4902
42.0345;2.78431
42.0407;3.09804
42.0468;3.37255
42.053;3.01961
42.0591;2.66667
42.0653;3.39216
42.0715;3
42.0776;2.31373
42.0838;3.03922
42.09;3.07843
42.0961;2.21569
42.1023;2.72549
42.1085;3
42.1146;2.68627
42.1208;2.5098
42.127;3.17647
42.1331;2.80392
42.1393;2.27451
42.1455;2.78431
42.1517;3
42.1579;2.31373
42.1641;2.70588
42.1703;3.01961
42.1765;2.64706
42.1827;2.5098
42.1889;3.03922
42.1951;2.90196
42.2013;2.09804
42.2075;2.98039
42.2137;3.15686
42.2199;2.11765
42.2261;2.56863
42.2323;3.19608
42.2385;2.5098
42.2448;2.80392
42.251;3.19608
42.2572;2.4902
42.2634;2.52941
42.2696;2.94118
42.2758;2.7451
42.282;2.07843
42.2882;2.96078
42.2944;2.43137
42.3006;2.35294
42.3068;3.07843
42.313;2.58824
42.3192;2.23529
42.3254;2.92157
42.3316;2.43137
42.3378;1.92157
42.344;2.78431
42.3502;2.41176
42.3564;1.52941
42.3626;1.98039
42.3688;2.21569
42.375;1.62745
42.3812;2.45098
42.3874;2.39216
42.3936;1.84314
42.3998;2.35294
42.406;2.70588
42.4122;2.5098
42.4184;3.19608
42.4246;3.21569
42.4308;2.90196
42.437;3
42.4432;3.35294
42.4494;3.05882
42.4556;2.7451
42.4618;3.35294
42.468;2.86275
42.4742;2.84314
42.4804;3.29412
42.4866;2.88235
42.4928;2.62745
42.499;3.35294
42.5052;3.2549
42.5114;2.52941
42.5176;2
42.5238;1.41176
42.53;0.0392157
42.5362;0.0588235
42.5424;0.254902
42.5486;0.568627
42.5548;1.62745
42.561;3.47059
42.5672;3.82353
42.5733;3.21569
42.5795;3.4902
42.5857;3.33333
42.5919;2.76471
42.5981;2.7451
42.6043;3.21569
42.6105;2.88235
42.6167;2.33333
42.6229;3.03922
42.6291;3.03922
42.6353;2.17647
42.6415;2.68627
42.6477;2.98039
42.6539;2.31373
42.6601;2.15686
42.6663;2.76471
42.6725;2.31373
42.6787;1.84314
42.6849;2.43137
42.6911;2.35294
42.6972;1.4902
42.7034;2.35294
42.7096;1.86275
42.7158;1.05882
42.722;1.88235
42.7282;1.76471
42.7344;1.09804
42.7406;1.13725
42.7468;1.21569
42.753;0.666667
42.7592;1.29412
42.7654;0.803922
42.7716;0.607843
42.7777;0.54902
42.7839;0.980392
42.79;0.392157
42.7962;1.07843
42.8023;1.78431
42.8085;1.5098
42.8146;1.56863
42.8208;2.66667
42.8269;2.94118
42.8331;3.15686
42.8392;4
42.8454;3.84314
42.8515;3.66667
42.8577;4.5098
42.8638;4.62745
42.87;3.88235
42.8761;4.68627
42.8823;4.2549
42.8884;3.5098
42.8946;4.09804
42.9007;4.05882
42.9068;3.37255
42.913;3.66667
42.9191;3.7451
42.9253;3.33333
42.9314;3.47059
42.9376;3.68627
42.9437;3
42.9499;3.05882
42.956;3.43137
42.9622;2.96078
42.9683;2.84314
42.9745;3.21569
42.9806;2.86275
42.9868;2.52941
42.9929;3.11765
42.9991;3.05882
43.0052;2.23529
43.0114;2.98039
43.0175;3.03922
43.0237;2.29412
43.0298;2.64706
43.036;2.96078
43.0421;2.54902
43.0483;2.56863
43.0544;3.23529
43.0606;2.82353
43.0667;2.27451
43.0729;2.98039
43.079;3
43.0852;2.43137
43.0914;2.80392
43.0976;2.98039
43.1038;2.60784
43.11;2.43137
43.1162;2.92157
43.1224;2.7451
43.1286;2.05882
43.1348;2.96078
43.141;2.82353
43.1472;1.98039
43.1534;2.56863
43.1596;2.80392
43.1658;2.43137
43.172;2.41176
43.1782;2.92157
43.1843;2.58824
43.1905;2
43.1967;2.64706
43.2029;2.23529
43.2091;2.31373
43.2153;2.94118
43.2215;2.68627
43.2277;2.05882
43.2339;2.7451
43.2401;2.80392
43.2463;1.66667
43.2525;2.58824
43.2587;2.23529
43.2649;1.66667
43.2711;2.29412
43.2773;2.05882
43.2835;1.60784
43.2897;2.27451
43.2959;2.37255
43.3021;1.7451
43.3082;2.11765
43.3144;2.4902
43.3206;2.37255
43.3268;2.27451
43.333;3.13725
43.3392;2.84314
43.3454;2.80392
43.3516;3.45098
43.3578;3.09804
43.364;2.68627
43.3702;3.27451
43.3764;2.66667
43.3826;2.64706
43.3888;3.21569
43.395;2.90196
43.4012;2.19608
43.4074;3.19608
43.4136;3.21569
43.4199;2.29412
43.4261;2.45098
43.4323;1.2549
43.4385;0.0980392
43.4447;0.196078
43.451;0
43.4572;0.215686
43.4634;2.62745
43.4696;3.37255
43.4758;2.84314
43.482;3
43.4883;3.33333
43.4945;2.84314
43.5007;2.56863
43.5069;3.15686
43.5131;2.96078
43.5193;2.31373
43.5256;3.11765
43.5318;3.2549
43.538;2.52941
43.5442;2.45098
43.5504;2.90196
43.5567;2.33333
43.5629;2.19608
43.5691;2.82353
43.5753;2.5098
43.5815;1.80392
43.5877;2.5098
43.594;2.37255
43.6002;1.76471
43.6064;2.01961
43.6126;2.29412
43.6188;1.80392
43.6251;1.58824
43.6313;1.90196
43.6375;1.56863
43.6437;0.72549
43.6499;1.60784
43.6561;1.39216
43.6624;0.647059
43.6686;1.03922
43.6748;1.17647
43.681;0.529412
43.6872;0.705882
43.6935;1.17647
43.6997;0.823529
43.7059;0.980392
43.712;1.47059
43.7182;1.47059
43.7243;1.62745
43.7305;2.66667
43.7366;2.70588
43.7428;2.47059
43.7489;3.80392
43.7551;3.84314
43.7612;3.35294
43.7674;4.39216
43.7735;4.29412
43.7797;3.54902
43.7858;4.17647
43.792;4.19608
43.7981;3.47059
43.8043;4.05882
43.8104;4.15686
43.8166;3.47059
43.8227;3.84314
43.8289;3.96078
43.835;3.11765
43.8412;3.29412
43.8473;3.5098
43.8535;2.92157
43.8596;2.90196
43.8658;3.39216
43.8719;3.03922
43.8781;2.82353
43.8842;3.27451
43.8904;3.01961
43.8965;2.56863
43.9027;3.21569
43.9088;3.13725
43.915;2.43137
43.9211;3.19608
43.9273;2.88235
43.9334;2.35294
43.9396;3.37255
43.9457;3
43.9519;2.31373
43.958;2.86275
43.9642;2.80392
43.9703;2.21569
43.9765;3.23529
43.9826;2.94118
43.9888;2.27451
43.9949;2.68627
44.0011;2.98039
44.0072;2.66667
44.0134;2.43137
44.0195;3.15686
44.0257;2.80392
44.0319;2.05882
44.0381;2.92157
44.0443;2.88235
44.0506;2.31373
44.0568;2.45098
44.063;3
44.0692;2.43137
44.0754;2.2549
44.0816;2.86275
44.0878;2.72549
44.094;2.11765
44.1002;2.92157
44.1064;2.86275
44.1127;2.17647
44.1189;2.62745
44.1251;2.84314
44.1313;2.54902
44.1375;2.37255
44.1437;3
44.1499;2.43137
44.1561;2
44.1623;2.78431
44.1685;2.72549
44.1748;2.05882
44.181;2.39216
44.1872;2.62745
44.1934;2.01961
44.1996;1.70588
44.2058;2.2549
44.212;1.45098
44.2182;1.66667
44.2244;2.31373
44.2307;2.15686
44.2369;1.56863
44.2431;2.31373
44.2493;1.98039
44.2555;1.86275
44.2617;2.68627
44.2679;2.72549
44.2741;2.37255
44.2803;3.23529
44.2865;3.31373
44.2928;2.62745
44.299;3.37255
44.3052;3.17647
44.3114;2.43137
44.3176;3.47059
